5.00000 66.000
5.03990 77.000
5.07980 70.000
5.11970 74.000
5.15960 75.000
5.19949 76.000
5.23939 79.000
5.27929 72.000
5.31919 89.000
5.35909 85.000
5.39899 82.000
5.43889 86.000
5.47879 64.000
5.51869 87.000
5.55859 83.000
5.59848 81.000
5.63838 77.000
5.67828 88.000
5.71818 78.000
5.75808 70.000
5.79798 85.000
5.83788 76.000
5.87778 80.000
5.91768 72.000
5.95758 83.000
5.99747 97.000
6.03737 83.000
6.07727 84.000
6.11717 68.000
6.15707 86.000
6.19697 75.000
6.23687 71.000
6.27677 80.000
6.31667 77.000
6.35656 96.000
6.39646 95.000
6.43636 80.000
6.47626 89.000
6.51616 105.000
6.55606 79.000
6.59596 96.000
6.63586 84.000
6.67576 99.000
6.71566 100.000
6.75555 85.000
6.79545 79.000
6.83535 99.000
6.87525 91.000
6.91515 79.000
6.95505 93.000
6.99495 114.000
7.03485 97.000
7.07475 95.000
7.11465 97.000
7.15454 108.000
7.19444 76.000
7.23434 87.000
7.27424 93.000
7.31414 109.000
7.35404 80.000
7.39394 106.000
7.43384 105.000
7.47374 86.000
7.51363 89.000
7.55353 116.000
7.59343 82.000
7.63333 80.000
7.67323 119.000
7.71313 107.000
7.75303 110.000
7.79293 106.000
7.83283 107.000
7.87273 105.000
7.91262 96.000
7.95252 105.000
7.99242 99.000
8.03232 111.000
8.07222 119.000
8.11212 112.000
8.15202 105.000
8.19192 82.000
8.23182 108.000
8.27171 105.000
8.31161 105.000
8.35151 102.000
8.39141 117.000
8.43131 100.000
8.47121 98.000
8.51111 93.000
8.55101 99.000
8.59091 111.000
8.63081 104.000
8.67070 95.000
8.71060 91.000
8.75050 100.000
8.79040 110.000
8.83030 108.000
8.87020 102.000
8.91010 108.000
8.95000 91.000
8.98990 81.000
9.02980 109.000
9.06969 93.000
9.10959 104.000
9.14949 123.000
9.18939 104.000
9.22929 93.000
9.26919 89.000
9.30909 114.000
9.34899 98.000
9.38889 101.000
9.42878 101.000
9.46868 100.000
9.50858 113.000
9.54848 102.000
9.58838 129.000
9.62828 99.000
9.66818 110.000
9.70808 119.000
9.74798 113.000
9.78788 114.000
9.82777 110.000
9.86767 89.000
9.90757 121.000
9.94747 102.000
9.98737 98.000
10.02727 121.000
10.06717 107.000
10.10707 126.000
10.14697 111.000
10.18687 102.000
10.22676 114.000
10.26666 114.000
10.30656 126.000
10.34646 130.000
10.38636 115.000
10.42626 98.000
10.46616 112.000
10.50606 119.000
10.54596 118.000
10.58585 122.000
10.62575 117.000
10.66565 108.000
10.70555 110.000
10.74545 134.000
10.78535 111.000
10.82525 108.000
10.86515 114.000
10.90505 115.000
10.94495 129.000
10.98484 115.000
11.02474 99.000
11.06464 130.000
11.10454 141.000
11.14444 111.000
11.18434 124.000
11.22424 105.000
11.26414 114.000
11.30404 128.000
11.34394 117.000
11.38383 117.000
11.42373 109.000
11.46363 129.000
11.50353 92.000
11.54343 126.000
11.58333 124.000
11.62323 105.000
11.66313 140.000
11.70303 131.000
11.74292 132.000
11.78282 112.000
11.82272 109.000
11.86262 140.000
11.90252 130.000
11.94242 132.000
11.98232 111.000
12.02222 120.000
12.06212 123.000
12.10202 130.000
12.14191 124.000
12.18181 113.000
12.22171 122.000
12.26161 112.000
12.30151 130.000
12.34141 147.000
12.38131 108.000
12.42121 127.000
12.46111 109.000
12.50100 140.000
12.54090 139.000
12.58080 118.000
12.62070 91.000
12.66060 121.000
12.70050 105.000
12.74040 122.000
12.78030 146.000
12.82020 117.000
12.86010 156.000
12.89999 106.000
12.93989 124.000
12.97979 123.000
13.01969 144.000
13.05959 131.000
13.09949 108.000
13.13939 128.000
13.17929 118.000
13.21919 125.000
13.25909 126.000
13.29898 108.000
13.33888 112.000
13.37878 126.000
13.41868 129.000
13.45858 118.000
13.49848 116.000
13.53838 137.000
13.57828 130.000
13.61818 127.000
13.65807 144.000
13.69797 123.000
13.73787 122.000
13.77777 128.000
13.81767 128.000
13.85757 111.000
13.89747 122.000
13.93737 129.000
13.97727 135.000
14.01717 134.000
14.05706 140.000
14.09696 141.000
14.13686 115.000
14.17676 111.000
14.21666 132.000
14.25656 122.000
14.29646 132.000
14.33636 107.000
14.37626 114.000
14.41616 129.000
14.45605 134.000
14.49595 109.000
14.53585 133.000
14.57575 109.000
14.61565 116.000
14.65555 140.000
14.69545 142.000
14.73535 124.000
14.77525 128.000
14.81514 125.000
14.85504 140.000
14.89494 128.000
14.93484 120.000
14.97474 139.000
15.01464 137.000
15.05454 123.000
15.09444 138.000
15.13434 151.000
15.17424 128.000
15.21413 133.000
15.25403 101.000
15.29393 141.000
15.33383 137.000
15.37373 147.000
15.41363 153.000
15.45353 110.000
15.49343 126.000
15.53333 125.000
15.57323 134.000
15.61312 146.000
15.65302 157.000
15.69292 150.000
15.73282 129.000
15.77272 155.000
15.81262 136.000
15.85252 133.000
15.89242 149.000
15.93232 134.000
15.97221 139.000
16.01211 136.000
16.05201 146.000
16.09191 142.000
16.13181 142.000
16.17171 133.000
16.21161 143.000
16.25151 144.000
16.29141 146.000
16.33131 137.000
16.37120 123.000
16.41110 150.000
16.45100 146.000
16.49090 141.000
16.53080 132.000
16.57070 141.000
16.61060 150.000
16.65050 146.000
16.69040 173.000
16.73029 153.000
16.77019 152.000
16.81009 173.000
16.84999 138.000
16.88989 179.000
16.92979 140.000
16.96969 162.000
17.00959 159.000
17.04949 162.000
17.08939 143.000
17.12928 127.000
17.16918 134.000
17.20908 162.000
17.24898 148.000
17.28888 158.000
17.32878 187.000
17.36868 149.000
17.40858 137.000
17.44848 157.000
17.48838 166.000
17.52827 150.000
17.56817 136.000
17.60807 162.000
17.64797 166.000
17.68787 155.000
17.72777 172.000
17.76767 186.000
17.80757 138.000
17.84747 160.000
17.88736 152.000
17.92726 161.000
17.96716 174.000
18.00706 168.000
18.04696 175.000
18.08686 186.000
18.12676 176.000
18.16666 171.000
18.20656 173.000
18.24646 154.000
18.28635 166.000
18.32625 170.000
18.36615 191.000
18.40605 198.000
18.44595 193.000
18.48585 162.000
18.52575 179.000
18.56565 210.000
18.60555 194.000
18.64545 199.000
18.68534 176.000
18.72524 170.000
18.76514 177.000
18.80504 155.000
18.84494 197.000
18.88484 201.000
18.92474 159.000
18.96464 189.000
19.00454 182.000
19.04443 207.000
19.08433 213.000
19.12423 189.000
19.16413 184.000
19.20403 198.000
19.24393 175.000
19.28383 147.000
19.32373 192.000
19.36363 208.000
19.40353 174.000
19.44342 187.000
19.48332 178.000
19.52322 216.000
19.56312 212.000
19.60302 198.000
19.64292 205.000
19.68282 197.000
19.72272 203.000
19.76262 205.000
19.80252 216.000
19.84241 196.000
19.88231 257.000
19.92221 206.000
19.96211 206.000
20.00201 201.000
20.04191 224.000
20.08181 220.000
20.12171 203.000
20.16161 197.000
20.20150 223.000
20.24140 217.000
20.28130 212.000
20.32120 226.000
20.36110 192.000
20.40100 224.000
20.44090 198.000
20.48080 190.000
20.52070 203.000
20.56060 224.000
20.60049 222.000
20.64039 226.000
20.68029 203.000
20.72019 205.000
20.76009 212.000
20.79999 223.000
20.83989 208.000
20.87979 214.000
20.91969 211.000
20.95959 206.000
20.99948 256.000
21.03938 186.000
21.07928 238.000
21.11918 218.000
21.15908 240.000
21.19898 212.000
21.23888 228.000
21.27878 187.000
21.31868 226.000
21.35857 228.000
21.39847 249.000
21.43837 205.000
21.47827 216.000
21.51817 211.000
21.55807 237.000
21.59797 227.000
21.63787 193.000
21.67777 245.000
21.71767 189.000
21.75756 219.000
21.79746 230.000
21.83736 215.000
21.87726 207.000
21.91716 212.000
21.95706 230.000
21.99696 203.000
22.03686 234.000
22.07676 212.000
22.11665 220.000
22.15655 218.000
22.19645 235.000
22.23635 181.000
22.27625 247.000
22.31615 230.000
22.35605 184.000
22.39595 232.000
22.43585 207.000
22.47575 206.000
22.51564 233.000
22.55554 210.000
22.59544 233.000
22.63534 203.000
22.67524 207.000
22.71514 216.000
22.75504 193.000
22.79494 209.000
22.83484 241.000
22.87474 233.000
22.91463 220.000
22.95453 218.000
22.99443 205.000
23.03433 209.000
23.07423 229.000
23.11413 198.000
23.15403 225.000
23.19393 219.000
23.23383 208.000
23.27372 208.000
23.31362 208.000
23.35352 182.000
23.39342 206.000
23.43332 200.000
23.47322 209.000
23.51312 187.000
23.55302 202.000
23.59292 199.000
23.63282 193.000
23.67271 208.000
23.71261 222.000
23.75251 205.000
23.79241 194.000
23.83231 223.000
23.87221 185.000
23.91211 216.000
23.95201 203.000
23.99191 195.000
24.03181 212.000
24.07170 204.000
24.11160 204.000
24.15150 204.000
24.19140 209.000
24.23130 205.000
24.27120 202.000
24.31110 172.000
24.35100 209.000
24.39090 180.000
24.43079 186.000
24.47069 212.000
24.51059 183.000
24.55049 191.000
24.59039 195.000
24.63029 211.000
24.67019 203.000
24.71009 173.000
24.74999 165.000
24.78989 191.000
24.82978 199.000
24.86968 195.000
24.90958 167.000
24.94948 161.000
24.98938 188.000
25.02928 192.000
25.06918 177.000
25.10908 170.000
25.14898 192.000
25.18888 186.000
25.22877 188.000
25.26867 195.000
25.30857 193.000
25.34847 154.000
25.38837 170.000
25.42827 200.000
25.46817 206.000
25.50807 172.000
25.54797 172.000
25.58786 203.000
25.62776 167.000
25.66766 209.000
25.70756 176.000
25.74746 157.000
25.78736 190.000
25.82726 173.000
25.86716 176.000
25.90706 189.000
25.94696 183.000
25.98685 195.000
26.02675 175.000
26.06665 172.000
26.10655 178.000
26.14645 158.000
26.18635 170.000
26.22625 189.000
26.26615 168.000
26.30605 185.000
26.34594 170.000
26.38584 192.000
26.42574 166.000
26.46564 194.000
26.50554 182.000
26.54544 192.000
26.58534 171.000
26.62524 163.000
26.66514 190.000
26.70504 152.000
26.74493 178.000
26.78483 168.000
26.82473 181.000
26.86463 153.000
26.90453 175.000
26.94443 163.000
26.98433 168.000
27.02423 173.000
27.06413 168.000
27.10403 160.000
27.14392 145.000
27.18382 154.000
27.22372 173.000
27.26362 180.000
27.30352 161.000
27.34342 160.000
27.38332 163.000
27.42322 163.000
27.46312 182.000
27.50301 173.000
27.54291 159.000
27.58281 179.000
27.62271 159.000
27.66261 170.000
27.70251 196.000
27.74241 175.000
27.78231 175.000
27.82221 178.000
27.86211 150.000
27.90200 153.000
27.94190 153.000
27.98180 147.000
28.02170 171.000
28.06160 164.000
28.10150 176.000
28.14140 165.000
28.18130 188.000
28.22120 148.000
28.26110 163.000
28.30099 172.000
28.34089 167.000
28.38079 154.000
28.42069 149.000
28.46059 165.000
28.50049 159.000
28.54039 156.000
28.58029 180.000
28.62019 155.000
28.66008 153.000
28.69998 145.000
28.73988 155.000
28.77978 164.000
28.81968 166.000
28.85958 162.000
28.89948 164.000
28.93938 154.000
28.97928 142.000
29.01918 171.000
29.05907 141.000
29.09897 162.000
29.13887 180.000
29.17877 144.000
29.21867 141.000
29.25857 164.000
29.29847 158.000
29.33837 152.000
29.37827 156.000
29.41817 154.000
29.45806 151.000
29.49796 160.000
29.53786 144.000
29.57776 160.000
29.61766 190.000
29.65756 132.000
29.69746 145.000
29.73736 172.000
29.77726 160.000
29.81715 166.000
29.85705 165.000
29.89695 177.000
29.93685 152.000
29.97675 162.000
30.01665 158.000
30.05655 172.000
30.09645 173.000
30.13635 169.000
30.17625 140.000
30.21614 162.000
30.25604 147.000
30.29594 156.000
30.33584 142.000
30.37574 168.000
30.41564 168.000
30.45554 175.000
30.49544 152.000
30.53534 134.000
30.57523 147.000
30.61513 155.000
30.65503 150.000
30.69493 168.000
30.73483 148.000
30.77473 163.000
30.81463 141.000
30.85453 146.000
30.89443 130.000
30.93433 136.000
30.97422 147.000
31.01412 176.000
31.05402 131.000
31.09392 151.000
31.13382 151.000
31.17372 138.000
31.21362 146.000
31.25352 164.000
31.29342 162.000
31.33332 142.000
31.37321 135.000
31.41311 156.000
31.45301 143.000
31.49291 152.000
31.53281 140.000
31.57271 160.000
31.61261 140.000
31.65251 143.000
31.69241 144.000
31.73230 153.000
31.77220 165.000
31.81210 158.000
31.85200 136.000
31.89190 163.000
31.93180 164.000
31.97170 153.000
32.01160 145.000
32.05150 126.000
32.09140 150.000
32.13129 151.000
32.17119 130.000
32.21109 139.000
32.25099 172.000
32.29089 159.000
32.33079 157.000
32.37069 161.000
32.41059 153.000
32.45049 140.000
32.49039 152.000
32.53028 160.000
32.57018 136.000
32.61008 182.000
32.64998 173.000
32.68988 179.000
32.72978 188.000
32.76968 195.000
32.80958 199.000
32.84948 200.000
32.88937 201.000
32.92927 196.000
32.96917 181.000
33.00907 158.000
33.04897 171.000
33.08887 165.000
33.12877 172.000
33.16867 168.000
33.20857 163.000
33.24847 157.000
33.28836 146.000
33.32826 141.000
33.36816 154.000
33.40806 142.000
33.44796 165.000
33.48786 154.000
33.52776 152.000
33.56766 153.000
33.60756 166.000
33.64746 128.000
33.68735 138.000
33.72725 147.000
33.76715 162.000
33.80705 140.000
33.84695 132.000
33.88685 141.000
33.92675 159.000
33.96665 147.000
34.00655 136.000
34.04644 147.000
34.08634 192.000
34.12624 131.000
34.16614 144.000
34.20604 137.000
34.24594 136.000
34.28584 148.000
34.32574 159.000
34.36564 160.000
34.40554 148.000
34.44543 142.000
34.48533 149.000
34.52523 146.000
34.56513 156.000
34.60503 153.000
34.64493 154.000
34.68483 154.000
34.72473 168.000
34.76463 135.000
34.80453 152.000
34.84442 167.000
34.88432 168.000
34.92422 151.000
34.96412 158.000
35.00402 161.000
35.04392 151.000
35.08382 160.000
35.12372 176.000
35.16362 171.000
35.20351 144.000
35.24341 158.000
35.28331 156.000
35.32321 151.000
35.36311 146.000
35.40301 149.000
35.44291 164.000
35.48281 148.000
35.52271 168.000
35.56261 140.000
35.60250 132.000
35.64240 170.000
35.68230 138.000
35.72220 161.000
35.76210 122.000
35.80200 125.000
35.84190 147.000
35.88180 137.000
35.92170 148.000
35.96159 158.000
36.00149 133.000
36.04139 133.000
36.08129 130.000
36.12119 128.000
36.16109 156.000
36.20099 134.000
36.24089 137.000
36.28079 136.000
36.32069 135.000
36.36058 155.000
36.40048 161.000
36.44038 167.000
36.48028 153.000
36.52018 173.000
36.56008 177.000
36.59998 153.000
36.63988 162.000
36.67978 150.000
36.71968 134.000
36.75957 138.000
36.79947 151.000
36.83937 151.000
36.87927 150.000
36.91917 140.000
36.95907 135.000
36.99897 168.000
37.03887 150.000
37.07877 136.000
37.11866 141.000
37.15856 160.000
37.19846 119.000
37.23836 149.000
37.27826 143.000
37.31816 128.000
37.35806 152.000
37.39796 118.000
37.43786 136.000
37.47776 121.000
37.51765 138.000
37.55755 133.000
37.59745 144.000
37.63735 141.000
37.67725 123.000
37.71715 160.000
37.75705 136.000
37.79695 149.000
37.83685 163.000
37.87675 131.000
37.91664 127.000
37.95654 138.000
37.99644 140.000
38.03634 159.000
38.07624 123.000
38.11614 142.000
38.15604 151.000
38.19594 147.000
38.23584 150.000
38.27573 140.000
38.31563 147.000
38.35553 135.000
38.39543 160.000
38.43533 154.000
38.47523 139.000
38.51513 138.000
38.55503 135.000
38.59493 135.000
38.63483 130.000
38.67472 123.000
38.71462 129.000
38.75452 119.000
38.79442 150.000
38.83432 141.000
38.87422 137.000
38.91412 133.000
38.95402 132.000
38.99392 132.000
39.03382 128.000
39.07371 142.000
39.11361 137.000
39.15351 150.000
39.19341 145.000
39.23331 128.000
39.27321 127.000
39.31311 138.000
39.35301 137.000
39.39291 145.000
39.43280 142.000
39.47270 139.000
39.51260 144.000
39.55250 130.000
39.59240 137.000
39.63230 126.000
39.67220 139.000
39.71210 138.000
39.75200 136.000
39.79190 160.000
39.83179 152.000
39.87169 153.000
39.91159 141.000
39.95149 138.000
39.99139 146.000
40.03129 161.000
40.07119 119.000
40.11109 146.000
40.15099 145.000
40.19088 141.000
40.23078 140.000
40.27068 123.000
40.31058 145.000
40.35048 131.000
40.39038 156.000
40.43028 129.000
40.47018 131.000
40.51008 138.000
40.54998 129.000
40.58987 131.000
40.62977 146.000
40.66967 118.000
40.70957 157.000
40.74947 137.000
40.78937 123.000
40.82927 141.000
40.86917 147.000
40.90907 129.000
40.94897 131.000
40.98886 141.000
41.02876 130.000
41.06866 161.000
41.10856 134.000
41.14846 133.000
41.18836 129.000
41.22826 157.000
41.26816 133.000
41.30806 140.000
41.34795 152.000
41.38785 145.000
41.42775 141.000
41.46765 136.000
41.50755 142.000
41.54745 131.000
41.58735 143.000
41.62725 145.000
41.66715 127.000
41.70705 129.000
41.74694 129.000
41.78684 150.000
41.82674 137.000
41.86664 128.000
41.90654 160.000
41.94644 140.000
41.98634 139.000
42.02624 136.000
42.06614 139.000
42.10604 136.000
42.14593 137.000
42.18583 124.000
42.22573 136.000
42.26563 144.000
42.30553 136.000
42.34543 143.000
42.38533 133.000
42.42523 132.000
42.46513 126.000
42.50502 142.000
42.54492 130.000
42.58482 129.000
42.62472 145.000
42.66462 128.000
42.70452 118.000
42.74442 154.000
42.78432 122.000
42.82422 135.000
42.86412 147.000
42.90401 127.000
42.94391 110.000
42.98381 116.000
43.02371 124.000
43.06361 157.000
43.10351 127.000
43.14341 132.000
43.18331 145.000
43.22321 169.000
43.26311 135.000
43.30300 130.000
43.34290 128.000
43.38280 122.000
43.42270 125.000
43.46260 137.000
43.50250 141.000
43.54240 137.000
43.58230 126.000
43.62220 125.000
43.66209 134.000
43.70199 131.000
43.74189 140.000
43.78179 125.000
43.82169 153.000
43.86159 139.000
43.90149 138.000
43.94139 147.000
43.98129 149.000
44.02119 139.000
44.06108 139.000
44.10098 135.000
44.14088 145.000
44.18078 117.000
44.22068 142.000
44.26058 154.000
44.30048 124.000
44.34038 129.000
44.38028 125.000
44.42017 121.000
44.46007 127.000
44.49997 144.000
44.53987 153.000
44.57977 143.000
44.61967 139.000
44.65957 108.000
44.69947 120.000
44.73937 148.000
44.77927 132.000
44.81916 134.000
44.85906 141.000
44.89896 167.000
44.93886 145.000
44.97876 147.000
45.01866 137.000
45.05856 139.000
45.09846 147.000
45.13836 146.000
45.17826 142.000
45.21815 123.000
45.25805 130.000
45.29795 148.000
45.33785 129.000
45.37775 135.000
45.41765 140.000
45.45755 142.000
45.49745 146.000
45.53735 109.000
45.57724 136.000
45.61714 141.000
45.65704 122.000
45.69694 132.000
45.73684 152.000
45.77674 147.000
45.81664 131.000
45.85654 125.000
45.89644 127.000
45.93634 140.000
45.97623 139.000
46.01613 135.000
46.05603 146.000
46.09593 143.000
46.13583 121.000
46.17573 113.000
46.21563 116.000
46.25553 117.000
46.29543 112.000
46.33533 130.000
46.37522 115.000
46.41512 134.000
46.45502 134.000
46.49492 131.000
46.53482 122.000
46.57472 114.000
46.61462 155.000
46.65452 120.000
46.69442 124.000
46.73431 155.000
46.77421 123.000
46.81411 139.000
46.85401 145.000
46.89391 137.000
46.93381 149.000
46.97371 127.000
47.01361 139.000
47.05351 123.000
47.09341 151.000
47.13330 124.000
47.17320 141.000
47.21310 129.000
47.25300 138.000
47.29290 135.000
47.33280 119.000
47.37270 129.000
47.41260 119.000
47.45250 126.000
47.49240 133.000
47.53229 94.000
47.57219 129.000
47.61209 128.000
47.65199 131.000
47.69189 122.000
47.73179 114.000
47.77169 151.000
47.81159 123.000
47.85149 115.000
47.89138 120.000
47.93128 128.000
47.97118 133.000
48.01108 130.000
48.05098 111.000
48.09088 130.000
48.13078 116.000
48.17068 117.000
48.21058 135.000
48.25048 135.000
48.29037 148.000
48.33027 132.000
48.37017 142.000
48.41007 137.000
48.44997 138.000
48.48987 155.000
48.52977 121.000
48.56967 134.000
48.60957 140.000
48.64946 141.000
48.68936 148.000
48.72926 136.000
48.76916 134.000
48.80906 128.000
48.84896 135.000
48.88886 105.000
48.92876 128.000
48.96866 121.000
49.00856 122.000
49.04845 146.000
49.08835 123.000
49.12825 131.000
49.16815 127.000
49.20805 126.000
49.24795 126.000
49.28785 128.000
49.32775 141.000
49.36765 130.000
49.40755 157.000
49.44744 144.000
49.48734 138.000
49.52724 139.000
49.56714 136.000
49.60704 146.000
49.64694 149.000
49.68684 119.000
49.72674 124.000
49.76664 133.000
49.80653 126.000
49.84643 108.000
49.88633 104.000
49.92623 136.000
49.96613 125.000
50.00603 144.000
50.04593 131.000
50.08583 112.000
50.12573 152.000
50.16563 138.000
50.20552 135.000
50.24542 142.000
50.28532 138.000
50.32522 120.000
50.36512 128.000
50.40502 106.000
50.44492 125.000
50.48482 147.000
50.52472 122.000
50.56462 131.000
50.60451 134.000
50.64441 129.000
50.68431 138.000
50.72421 144.000
50.76411 127.000
50.80401 128.000
50.84391 136.000
50.88381 121.000
50.92371 152.000
50.96360 127.000
51.00350 108.000
51.04340 99.000
51.08330 131.000
51.12320 138.000
51.16310 134.000
51.20300 115.000
51.24290 122.000
51.28280 112.000
51.32270 135.000
51.36259 135.000
51.40249 131.000
51.44239 136.000
51.48229 135.000
51.52219 141.000
51.56209 122.000
51.60199 127.000
51.64189 111.000
51.68179 121.000
51.72169 129.000
51.76158 125.000
51.80148 151.000
51.84138 117.000
51.88128 110.000
51.92118 141.000
51.96108 132.000
52.00098 130.000
52.04088 133.000
52.08078 124.000
52.12067 147.000
52.16057 150.000
52.20047 125.000
52.24037 132.000
52.28027 139.000
52.32017 134.000
52.36007 144.000
52.39997 118.000
52.43987 135.000
52.47977 118.000
52.51966 121.000
52.55956 120.000
52.59946 125.000
52.63936 137.000
52.67926 128.000
52.71916 139.000
52.75906 133.000
52.79896 146.000
52.83886 152.000
52.87876 122.000
52.91865 137.000
52.95855 113.000
52.99845 125.000
53.03835 125.000
53.07825 125.000
53.11815 117.000
53.15805 123.000
53.19795 138.000
53.23785 112.000
53.27774 132.000
53.31764 132.000
53.35754 152.000
53.39744 149.000
53.43734 111.000
53.47724 118.000
53.51714 150.000
53.55704 126.000
53.59694 123.000
53.63684 145.000
53.67673 112.000
53.71663 127.000
53.75653 145.000
53.79643 124.000
53.83633 129.000
53.87623 117.000
53.91613 125.000
53.95603 124.000
53.99593 132.000
54.03582 149.000
54.07572 128.000
54.11562 125.000
54.15552 134.000
54.19542 125.000
54.23532 158.000
54.27522 114.000
54.31512 136.000
54.35502 123.000
54.39492 127.000
54.43481 131.000
54.47471 145.000
54.51461 130.000
54.55451 134.000
54.59441 128.000
54.63431 140.000
54.67421 124.000
54.71411 131.000
54.75401 150.000
54.79391 118.000
54.83380 114.000
54.87370 141.000
54.91360 131.000
54.95350 111.000
54.99340 103.000
55.03330 110.000
55.07320 120.000
55.11310 129.000
55.15300 124.000
55.19289 148.000
55.23279 119.000
55.27269 135.000
55.31259 134.000
55.35249 115.000
55.39239 140.000
55.43229 124.000
55.47219 111.000
55.51209 114.000
55.55199 123.000
55.59188 113.000
55.63178 121.000
55.67168 131.000
55.71158 116.000
55.75148 125.000
55.79138 107.000
55.83128 132.000
55.87118 123.000
55.91108 122.000
55.95098 119.000
55.99087 130.000
56.03077 129.000
56.07067 128.000
56.11057 122.000
56.15047 126.000
56.19037 122.000
56.23027 126.000
56.27017 104.000
56.31007 137.000
56.34996 141.000
56.38986 137.000
56.42976 142.000
56.46966 124.000
56.50956 127.000
56.54946 127.000
56.58936 99.000
56.62926 104.000
56.66916 108.000
56.70906 115.000
56.74895 139.000
56.78885 128.000
56.82875 127.000
56.86865 124.000
56.90855 121.000
56.94845 125.000
56.98835 139.000
57.02825 105.000
57.06815 129.000
57.10805 123.000
57.14794 138.000
57.18784 114.000
57.22774 138.000
57.26764 131.000
57.30754 117.000
57.34744 125.000
57.38734 140.000
57.42724 121.000
57.46714 122.000
57.50703 116.000
57.54693 110.000
57.58683 120.000
57.62673 123.000
57.66663 115.000
57.70653 126.000
57.74643 126.000
57.78633 99.000
57.82623 113.000
57.86613 134.000
57.90602 134.000
57.94592 125.000
57.98582 121.000
58.02572 120.000
58.06562 108.000
58.10552 162.000
58.14542 112.000
58.18532 107.000
58.22522 121.000
58.26511 135.000
58.30501 117.000
58.34491 95.000
58.38481 130.000
58.42471 130.000
58.46461 129.000
58.50451 121.000
58.54441 132.000
58.58431 124.000
58.62421 144.000
58.66410 129.000
58.70400 139.000
58.74390 146.000
58.78380 121.000
58.82370 136.000
58.86360 127.000
58.90350 116.000
58.94340 151.000
58.98330 116.000
59.02320 104.000
59.06309 131.000
59.10299 125.000
59.14289 119.000
59.18279 119.000
59.22269 125.000
59.26259 131.000
59.30249 137.000
59.34239 126.000
59.38229 152.000
59.42218 116.000
59.46208 117.000
59.50198 128.000
59.54188 132.000
59.58178 129.000
59.62168 123.000
59.66158 127.000
59.70148 140.000
59.74138 123.000
59.78128 129.000
59.82117 144.000
59.86107 122.000
59.90097 131.000
59.94087 113.000
59.98077 112.000
60.02067 111.000
60.06057 125.000
60.10047 162.000
60.14037 138.000
60.18027 113.000
60.22016 135.000
60.26006 112.000
60.29996 142.000
60.33986 136.000
60.37976 120.000
60.41966 121.000
60.45956 123.000
60.49946 132.000
60.53936 133.000
60.57925 119.000
60.61915 138.000
60.65905 133.000
60.69895 136.000
60.73885 127.000
60.77875 147.000
60.81865 139.000
60.85855 157.000
60.89845 123.000
60.93835 159.000
60.97824 135.000
61.01814 153.000
61.05804 146.000
61.09794 137.000
61.13784 119.000
61.17774 153.000
61.21764 128.000
61.25754 140.000
61.29744 146.000
61.33734 135.000
61.37723 114.000
61.41713 135.000
61.45703 140.000
61.49693 125.000
61.53683 118.000
61.57673 102.000
61.61663 133.000
61.65653 132.000
61.69643 122.000
61.73632 140.000
61.77622 122.000
61.81612 118.000
61.85602 133.000
61.89592 117.000
61.93582 136.000
61.97572 134.000
62.01562 122.000
62.05552 133.000
62.09542 138.000
62.13531 121.000
62.17521 120.000
62.21511 120.000
62.25501 129.000
62.29491 122.000
62.33481 120.000
62.37471 136.000
62.41461 124.000
62.45451 131.000
62.49440 138.000
62.53430 143.000
62.57420 124.000
62.61410 137.000
62.65400 147.000
62.69390 106.000
62.73380 119.000
62.77370 121.000
62.81360 135.000
62.85350 130.000
62.89339 127.000
62.93329 117.000
62.97319 135.000
63.01309 140.000
63.05299 125.000
63.09289 147.000
63.13279 152.000
63.17269 137.000
63.21259 147.000
63.25249 140.000
63.29238 126.000
63.33228 138.000
63.37218 157.000
63.41208 139.000
63.45198 120.000
63.49188 118.000
63.53178 135.000
63.57168 129.000
63.61158 136.000
63.65147 146.000
63.69137 123.000
63.73127 121.000
63.77117 132.000
63.81107 120.000
63.85097 142.000
63.89087 115.000
63.93077 135.000
63.97067 133.000
64.01057 144.000
64.05046 151.000
64.09036 115.000
64.13026 138.000
64.17016 137.000
64.21006 122.000
64.24996 105.000
64.28986 138.000
64.32976 141.000
64.36966 137.000
64.40956 124.000
64.44945 137.000
64.48935 136.000
64.52925 128.000
64.56915 112.000
64.60905 105.000
64.64895 113.000
64.68885 117.000
64.72875 124.000
64.76865 130.000
64.80854 117.000
64.84844 98.000
64.88834 131.000
64.92824 120.000
64.96814 123.000
65.00804 137.000
65.04794 132.000
65.08784 127.000
65.12774 133.000
65.16764 137.000
65.20753 99.000
65.24743 112.000
65.28733 96.000
65.32723 112.000
65.36713 126.000
65.40703 112.000
65.44693 145.000
65.48683 143.000
65.52673 149.000
65.56663 124.000
65.60652 123.000
65.64642 136.000
65.68632 144.000
65.72622 144.000
65.76612 127.000
65.80602 132.000
65.84592 142.000
65.88582 137.000
65.92572 134.000
65.96561 124.000
66.00551 132.000
66.04541 119.000
66.08531 135.000
66.12521 122.000
66.16511 152.000
66.20501 111.000
66.24491 120.000
66.28481 114.000
66.32471 102.000
66.36460 136.000
66.40450 134.000
66.44440 123.000
66.48430 129.000
66.52420 119.000
66.56410 145.000
66.60400 122.000
66.64390 119.000
66.68380 119.000
66.72370 106.000
66.76359 115.000
66.80349 123.000
66.84339 121.000
66.88329 113.000
66.92319 147.000
66.96309 113.000
67.00299 122.000
67.04289 127.000
67.08279 116.000
67.12268 133.000
67.16258 113.000
67.20248 131.000
67.24238 109.000
67.28228 133.000
67.32218 111.000
67.36208 112.000
67.40198 145.000
67.44188 129.000
67.48178 133.000
67.52167 111.000
67.56157 144.000
67.60147 113.000
67.64137 125.000
67.68127 121.000
67.72117 131.000
67.76107 122.000
67.80097 133.000
67.84087 126.000
67.88076 121.000
67.92066 124.000
67.96056 124.000
68.00046 114.000
68.04036 106.000
68.08026 118.000
68.12016 125.000
68.16006 129.000
68.19996 102.000
68.23986 122.000
68.27975 130.000
68.31965 108.000
68.35955 130.000
68.39945 131.000
68.43935 131.000
68.47925 126.000
68.51915 136.000
68.55905 121.000
68.59895 140.000
68.63885 121.000
68.67874 113.000
68.71864 126.000
68.75854 135.000
68.79844 115.000
68.83834 128.000
68.87824 123.000
68.91814 114.000
68.95804 115.000
68.99794 127.000
69.03783 120.000
69.07773 121.000
69.11763 119.000
69.15753 123.000
69.19743 111.000
69.23733 125.000
69.27723 147.000
69.31713 134.000
69.35703 101.000
69.39693 118.000
69.43682 117.000
69.47672 126.000
69.51662 135.000
69.55652 121.000
69.59642 118.000
69.63632 112.000
69.67622 138.000
69.71612 115.000
69.75602 125.000
69.79592 124.000
69.83581 123.000
69.87571 103.000
69.91561 131.000
69.95551 113.000
69.99541 115.000
70.03531 111.000
70.07521 117.000
70.11511 130.000
70.15501 135.000
70.19490 131.000
70.23480 116.000
70.27470 120.000
70.31460 130.000
70.35450 158.000
70.39440 124.000
70.43430 118.000
70.47420 122.000
70.51410 122.000
70.55400 136.000
70.59389 105.000
70.63379 118.000
70.67369 130.000
70.71359 136.000
70.75349 116.000
70.79339 114.000
70.83329 142.000
70.87319 128.000
70.91309 119.000
70.95299 140.000
70.99288 118.000
71.03278 138.000
71.07268 136.000
71.11258 134.000
71.15248 122.000
71.19238 123.000
71.23228 88.000
71.27218 127.000
71.31208 132.000
71.35197 119.000
71.39187 119.000
71.43177 131.000
71.47167 109.000
71.51157 127.000
71.55147 121.000
71.59137 112.000
71.63127 100.000
71.67117 121.000
71.71107 106.000
71.75096 119.000
71.79086 112.000
71.83076 125.000
71.87066 118.000
71.91056 120.000
71.95046 125.000
71.99036 117.000
72.03026 119.000
72.07016 125.000
72.11005 105.000
72.14995 129.000
72.18985 126.000
72.22975 125.000
72.26965 122.000
72.30955 130.000
72.34945 121.000
72.38935 137.000
72.42925 125.000
72.46915 103.000
72.50904 114.000
72.54894 131.000
72.58884 115.000
72.62874 126.000
72.66864 111.000
72.70854 118.000
72.74844 134.000
72.78834 107.000
72.82824 153.000
72.86814 114.000
72.90803 133.000
72.94793 114.000
72.98783 118.000
73.02773 130.000
73.06763 125.000
73.10753 114.000
73.14743 125.000
73.18733 132.000
73.22723 125.000
73.26712 115.000
73.30702 110.000
73.34692 151.000
73.38682 135.000
73.42672 113.000
73.46662 109.000
73.50652 113.000
73.54642 127.000
73.58632 106.000
73.62622 123.000
73.66611 122.000
73.70601 99.000
73.74591 119.000
73.78581 123.000
73.82571 122.000
73.86561 107.000
73.90551 118.000
73.94541 128.000
73.98531 137.000
74.02521 135.000
74.06510 116.000
74.10500 127.000
74.14490 146.000
74.18480 103.000
74.22470 131.000
74.26460 104.000
74.30450 139.000
74.34440 142.000
74.38430 116.000
74.42419 117.000
74.46409 127.000
74.50399 102.000
74.54389 110.000
74.58379 148.000
74.62369 153.000
74.66359 115.000
74.70349 123.000
74.74339 123.000
74.78329 126.000
74.82318 112.000
74.86308 134.000
74.90298 131.000
74.94288 125.000
74.98278 146.000
75.02268 136.000
75.06258 127.000
75.10248 109.000
75.14238 136.000
75.18228 121.000
75.22217 120.000
75.26207 133.000
75.30197 130.000
75.34187 119.000
75.38177 107.000
75.42167 111.000
75.46157 122.000
75.50147 121.000
75.54137 118.000
75.58126 125.000
75.62116 104.000
75.66106 118.000
75.70096 125.000
75.74086 116.000
75.78076 122.000
75.82066 121.000
75.86056 117.000
75.90046 108.000
75.94036 108.000
75.98025 120.000
76.02015 111.000
76.06005 122.000
76.09995 129.000
76.13985 126.000
76.17975 109.000
76.21965 111.000
76.25955 134.000
76.29945 127.000
76.33934 131.000
76.37924 109.000
76.41914 102.000
76.45904 124.000
76.49894 130.000
76.53884 107.000
76.57874 122.000
76.61864 116.000
76.65854 102.000
76.69844 126.000
76.73833 125.000
76.77823 116.000
76.81813 128.000
76.85803 110.000
76.89793 127.000
76.93783 133.000
76.97773 106.000
77.01763 89.000
77.05753 114.000
77.09743 121.000
77.13732 115.000
77.17722 132.000
77.21712 124.000
77.25702 108.000
77.29692 124.000
77.33682 131.000
77.37672 140.000
77.41662 97.000
77.45652 111.000
77.49641 129.000
77.53631 143.000
77.57621 122.000
77.61611 112.000
77.65601 108.000
77.69591 134.000
77.73581 108.000
77.77571 143.000
77.81561 123.000
77.85551 123.000
77.89540 125.000
77.93530 139.000
77.97520 116.000
78.01510 121.000
78.05500 116.000
78.09490 115.000
78.13480 125.000
78.17470 127.000
78.21460 127.000
78.25450 125.000
78.29439 127.000
78.33429 130.000
78.37419 119.000
78.41409 119.000
78.45399 128.000
78.49389 112.000
78.53379 135.000
78.57369 131.000
78.61359 126.000
78.65348 126.000
78.69338 117.000
78.73328 119.000
78.77318 131.000
78.81308 107.000
78.85298 114.000
78.89288 106.000
78.93278 112.000
78.97268 112.000
79.01258 115.000
79.05247 121.000
79.09237 116.000
79.13227 120.000
79.17217 123.000
79.21207 128.000
79.25197 116.000
79.29187 118.000
79.33177 115.000
79.37167 110.000
79.41157 112.000
79.45146 109.000
79.49136 106.000
79.53126 108.000
79.57116 122.000
79.61106 127.000
79.65096 133.000
79.69086 108.000
79.73076 110.000
79.77066 135.000
79.81055 115.000
79.85045 105.000
79.89035 110.000
79.93025 115.000
79.97015 133.000
80.01005 142.000
80.04995 113.000
80.08985 120.000
80.12975 120.000
80.16965 114.000
80.20954 130.000
80.24944 125.000
80.28934 125.000
