5.00000 51.000
5.03990 56.000
5.07980 47.000
5.11970 55.000
5.15960 56.000
5.19949 55.000
5.23939 42.000
5.27929 48.000
5.31919 60.000
5.35909 48.000
5.39899 53.000
5.43889 50.000
5.47879 68.000
5.51869 54.000
5.55859 48.000
5.59848 70.000
5.63838 53.000
5.67828 62.000
5.71818 71.000
5.75808 61.000
5.79798 45.000
5.83788 57.000
5.87778 58.000
5.91768 46.000
5.95758 59.000
5.99747 65.000
6.03737 50.000
6.07727 59.000
6.11717 46.000
6.15707 58.000
6.19697 51.000
6.23687 62.000
6.27677 57.000
6.31667 53.000
6.35656 67.000
6.39646 65.000
6.43636 61.000
6.47626 67.000
6.51616 67.000
6.55606 80.000
6.59596 80.000
6.63586 71.000
6.67576 78.000
6.71566 76.000
6.75555 69.000
6.79545 66.000
6.83535 77.000
6.87525 65.000
6.91515 53.000
6.95505 82.000
6.99495 65.000
7.03485 68.000
7.07475 67.000
7.11465 80.000
7.15454 71.000
7.19444 76.000
7.23434 80.000
7.27424 81.000
7.31414 76.000
7.35404 107.000
7.39394 95.000
7.43384 84.000
7.47374 76.000
7.51363 74.000
7.55353 81.000
7.59343 101.000
7.63333 85.000
7.67323 91.000
7.71313 65.000
7.75303 84.000
7.79293 78.000
7.83283 95.000
7.87273 81.000
7.91262 81.000
7.95252 78.000
7.99242 88.000
8.03232 86.000
8.07222 85.000
8.11212 85.000
8.15202 63.000
8.19192 83.000
8.23182 83.000
8.27171 80.000
8.31161 79.000
8.35151 81.000
8.39141 84.000
8.43131 76.000
8.47121 84.000
8.51111 96.000
8.55101 73.000
8.59091 104.000
8.63081 81.000
8.67070 88.000
8.71060 98.000
8.75050 85.000
8.79040 90.000
8.83030 91.000
8.87020 84.000
8.91010 71.000
8.95000 105.000
8.98990 94.000
9.02980 85.000
9.06969 85.000
9.10959 89.000
9.14949 67.000
9.18939 93.000
9.22929 102.000
9.26919 93.000
9.30909 99.000
9.34899 105.000
9.38889 90.000
9.42878 79.000
9.46868 84.000
9.50858 92.000
9.54848 97.000
9.58838 91.000
9.62828 93.000
9.66818 96.000
9.70808 94.000
9.74798 83.000
9.78788 73.000
9.82777 105.000
9.86767 95.000
9.90757 98.000
9.94747 77.000
9.98737 77.000
10.02727 102.000
10.06717 105.000
10.10707 83.000
10.14697 102.000
10.18687 89.000
10.22676 95.000
10.26666 97.000
10.30656 103.000
10.34646 90.000
10.38636 98.000
10.42626 88.000
10.46616 99.000
10.50606 90.000
10.54596 93.000
10.58585 88.000
10.62575 97.000
10.66565 85.000
10.70555 88.000
10.74545 103.000
10.78535 85.000
10.82525 85.000
10.86515 103.000
10.90505 93.000
10.94495 87.000
10.98484 96.000
11.02474 102.000
11.06464 98.000
11.10454 96.000
11.14444 127.000
11.18434 101.000
11.22424 87.000
11.26414 112.000
11.30404 91.000
11.34394 103.000
11.38383 98.000
11.42373 98.000
11.46363 83.000
11.50353 96.000
11.54343 97.000
11.58333 82.000
11.62323 114.000
11.66313 93.000
11.70303 88.000
11.74292 79.000
11.78282 79.000
11.82272 88.000
11.86262 111.000
11.90252 92.000
11.94242 92.000
11.98232 79.000
12.02222 93.000
12.06212 92.000
12.10202 87.000
12.14191 108.000
12.18181 106.000
12.22171 100.000
12.26161 92.000
12.30151 102.000
12.34141 103.000
12.38131 89.000
12.42121 107.000
12.46111 103.000
12.50100 82.000
12.54090 97.000
12.58080 101.000
12.62070 87.000
12.66060 94.000
12.70050 98.000
12.74040 90.000
12.78030 103.000
12.82020 85.000
12.86010 85.000
12.89999 101.000
12.93989 92.000
12.97979 95.000
13.01969 107.000
13.05959 74.000
13.09949 100.000
13.13939 92.000
13.17929 117.000
13.21919 108.000
13.25909 93.000
13.29898 78.000
13.33888 90.000
13.37878 86.000
13.41868 96.000
13.45858 93.000
13.49848 70.000
13.53838 90.000
13.57828 80.000
13.61818 89.000
13.65807 83.000
13.69797 99.000
13.73787 96.000
13.77777 89.000
13.81767 110.000
13.85757 108.000
13.89747 98.000
13.93737 86.000
13.97727 84.000
14.01717 90.000
14.05706 102.000
14.09696 96.000
14.13686 108.000
14.17676 89.000
14.21666 98.000
14.25656 87.000
14.29646 88.000
14.33636 95.000
14.37626 108.000
14.41616 106.000
14.45605 88.000
14.49595 84.000
14.53585 105.000
14.57575 93.000
14.61565 101.000
14.65555 80.000
14.69545 103.000
14.73535 107.000
14.77525 81.000
14.81514 114.000
14.85504 108.000
14.89494 115.000
14.93484 96.000
14.97474 102.000
15.01464 102.000
15.05454 100.000
15.09444 111.000
15.13434 113.000
15.17424 100.000
15.21413 96.000
15.25403 81.000
15.29393 107.000
15.33383 87.000
15.37373 115.000
15.41363 99.000
15.45353 96.000
15.49343 113.000
15.53333 104.000
15.57323 103.000
15.61312 100.000
15.65302 101.000
15.69292 112.000
15.73282 105.000
15.77272 92.000
15.81262 129.000
15.85252 108.000
15.89242 100.000
15.93232 113.000
15.97221 119.000
16.01211 106.000
16.05201 145.000
16.09191 117.000
16.13181 113.000
16.17171 120.000
16.21161 110.000
16.25151 95.000
16.29141 142.000
16.33131 109.000
16.37120 122.000
16.41110 108.000
16.45100 131.000
16.49090 131.000
16.53080 119.000
16.57070 125.000
16.61060 117.000
16.65050 126.000
16.69040 128.000
16.73029 107.000
16.77019 136.000
16.81009 113.000
16.84999 127.000
16.88989 135.000
16.92979 118.000
16.96969 135.000
17.00959 124.000
17.04949 128.000
17.08939 148.000
17.12928 129.000
17.16918 137.000
17.20908 132.000
17.24898 130.000
17.28888 131.000
17.32878 133.000
17.36868 135.000
17.40858 136.000
17.44848 130.000
17.48838 137.000
17.52827 138.000
17.56817 145.000
17.60807 151.000
17.64797 146.000
17.68787 150.000
17.72777 150.000
17.76767 138.000
17.80757 150.000
17.84747 139.000
17.88736 152.000
17.92726 144.000
17.96716 133.000
18.00706 138.000
18.04696 137.000
18.08686 144.000
18.12676 152.000
18.16666 170.000
18.20656 152.000
18.24646 151.000
18.28635 151.000
18.32625 162.000
18.36615 146.000
18.40605 154.000
18.44595 148.000
18.48585 141.000
18.52575 169.000
18.56565 177.000
18.60555 179.000
18.64545 161.000
18.68534 167.000
18.72524 167.000
18.76514 154.000
18.80504 154.000
18.84494 172.000
18.88484 179.000
18.92474 155.000
18.96464 164.000
19.00454 168.000
19.04443 190.000
19.08433 182.000
19.12423 167.000
19.16413 182.000
19.20403 190.000
19.24393 167.000
19.28383 197.000
19.32373 180.000
19.36363 212.000
19.40353 198.000
19.44342 170.000
19.48332 213.000
19.52322 201.000
19.56312 169.000
19.60302 220.000
19.64292 206.000
19.68282 163.000
19.72272 190.000
19.76262 182.000
19.80252 217.000
19.84241 231.000
19.88231 190.000
19.92221 193.000
19.96211 215.000
20.00201 199.000
20.04191 217.000
20.08181 217.000
20.12171 208.000
20.16161 211.000
20.20150 202.000
20.24140 196.000
20.28130 205.000
20.32120 208.000
20.36110 223.000
20.40100 229.000
20.44090 220.000
20.48080 219.000
20.52070 226.000
20.56060 236.000
20.60049 244.000
20.64039 217.000
20.68029 248.000
20.72019 209.000
20.76009 212.000
20.79999 211.000
20.83989 220.000
20.87979 227.000
20.91969 221.000
20.95959 220.000
20.99948 232.000
21.03938 227.000
21.07928 225.000
21.11918 212.000
21.15908 218.000
21.19898 221.000
21.23888 227.000
21.27878 215.000
21.31868 229.000
21.35857 203.000
21.39847 202.000
21.43837 238.000
21.47827 241.000
21.51817 212.000
21.55807 203.000
21.59797 194.000
21.63787 221.000
21.67777 227.000
21.71767 245.000
21.75756 217.000
21.79746 202.000
21.83736 210.000
21.87726 226.000
21.91716 202.000
21.95706 228.000
21.99696 219.000
22.03686 206.000
22.07676 242.000
22.11665 201.000
22.15655 198.000
22.19645 211.000
22.23635 203.000
22.27625 243.000
22.31615 209.000
22.35605 241.000
22.39595 225.000
22.43585 236.000
22.47575 216.000
22.51564 186.000
22.55554 230.000
22.59544 200.000
22.63534 202.000
22.67524 217.000
22.71514 236.000
22.75504 214.000
22.79494 202.000
22.83484 203.000
22.87474 196.000
22.91463 206.000
22.95453 237.000
22.99443 207.000
23.03433 206.000
23.07423 191.000
23.11413 205.000
23.15403 208.000
23.19393 233.000
23.23383 211.000
23.27372 178.000
23.31362 185.000
23.35352 167.000
23.39342 167.000
23.43332 182.000
23.47322 181.000
23.51312 174.000
23.55302 179.000
23.59292 167.000
23.63282 176.000
23.67271 177.000
23.71261 182.000
23.75251 204.000
23.79241 175.000
23.83231 198.000
23.87221 172.000
23.91211 183.000
23.95201 152.000
23.99191 155.000
24.03181 171.000
24.07170 193.000
24.11160 155.000
24.15150 171.000
24.19140 202.000
24.23130 176.000
24.27120 163.000
24.31110 143.000
24.35100 169.000
24.39090 154.000
24.43079 188.000
24.47069 153.000
24.51059 157.000
24.55049 142.000
24.59039 163.000
24.63029 154.000
24.67019 161.000
24.71009 160.000
24.74999 166.000
24.78989 148.000
24.82978 147.000
24.86968 148.000
24.90958 137.000
24.94948 136.000
24.98938 177.000
25.02928 149.000
25.06918 161.000
25.10908 158.000
25.14898 146.000
25.18888 142.000
25.22877 162.000
25.26867 163.000
25.30857 143.000
25.34847 120.000
25.38837 155.000
25.42827 140.000
25.46817 139.000
25.50807 131.000
25.54797 129.000
25.58786 135.000
25.62776 136.000
25.66766 122.000
25.70756 142.000
25.74746 135.000
25.78736 126.000
25.82726 125.000
25.86716 143.000
25.90706 120.000
25.94696 127.000
25.98685 123.000
26.02675 137.000
26.06665 150.000
26.10655 117.000
26.14645 130.000
26.18635 138.000
26.22625 120.000
26.26615 127.000
26.30605 134.000
26.34594 127.000
26.38584 128.000
26.42574 110.000
26.46564 108.000
26.50554 111.000
26.54544 126.000
26.58534 94.000
26.62524 131.000
26.66514 124.000
26.70504 116.000
26.74493 107.000
26.78483 95.000
26.82473 116.000
26.86463 134.000
26.90453 130.000
26.94443 115.000
26.98433 136.000
27.02423 133.000
27.06413 116.000
27.10403 121.000
27.14392 115.000
27.18382 133.000
27.22372 115.000
27.26362 110.000
27.30352 113.000
27.34342 112.000
27.38332 98.000
27.42322 121.000
27.46312 100.000
27.50301 118.000
27.54291 114.000
27.58281 124.000
27.62271 126.000
27.66261 105.000
27.70251 122.000
27.74241 111.000
27.78231 104.000
27.82221 103.000
27.86211 92.000
27.90200 126.000
27.94190 103.000
27.98180 106.000
28.02170 105.000
28.06160 93.000
28.10150 95.000
28.14140 109.000
28.18130 109.000
28.22120 103.000
28.26110 101.000
28.30099 100.000
28.34089 104.000
28.38079 102.000
28.42069 108.000
28.46059 116.000
28.50049 77.000
28.54039 112.000
28.58029 112.000
28.62019 110.000
28.66008 88.000
28.69998 117.000
28.73988 132.000
28.77978 106.000
28.81968 102.000
28.85958 92.000
28.89948 101.000
28.93938 89.000
28.97928 86.000
29.01918 102.000
29.05907 119.000
29.09897 80.000
29.13887 93.000
29.17877 104.000
29.21867 95.000
29.25857 80.000
29.29847 89.000
29.33837 89.000
29.37827 91.000
29.41817 87.000
29.45806 84.000
29.49796 90.000
29.53786 94.000
29.57776 79.000
29.61766 95.000
29.65756 89.000
29.69746 85.000
29.73736 86.000
29.77726 101.000
29.81715 92.000
29.85705 73.000
29.89695 101.000
29.93685 94.000
29.97675 77.000
30.01665 90.000
30.05655 81.000
30.09645 87.000
30.13635 91.000
30.17625 93.000
30.21614 75.000
30.25604 102.000
30.29594 82.000
30.33584 80.000
30.37574 106.000
30.41564 93.000
30.45554 95.000
30.49544 89.000
30.53534 96.000
30.57523 105.000
30.61513 80.000
30.65503 82.000
30.69493 97.000
30.73483 78.000
30.77473 100.000
30.81463 76.000
30.85453 85.000
30.89443 82.000
30.93433 92.000
30.97422 93.000
31.01412 67.000
31.05402 72.000
31.09392 80.000
31.13382 99.000
31.17372 85.000
31.21362 95.000
31.25352 62.000
31.29342 84.000
31.33332 92.000
31.37321 94.000
31.41311 83.000
31.45301 76.000
31.49291 72.000
31.53281 75.000
31.57271 76.000
31.61261 104.000
31.65251 78.000
31.69241 95.000
31.73230 69.000
31.77220 75.000
31.81210 84.000
31.85200 92.000
31.89190 62.000
31.93180 82.000
31.97170 90.000
32.01160 81.000
32.05150 86.000
32.09140 76.000
32.13129 75.000
32.17119 93.000
32.21109 66.000
32.25099 95.000
32.29089 83.000
32.33079 89.000
32.37069 66.000
32.41059 81.000
32.45049 69.000
32.49039 83.000
32.53028 83.000
32.57018 82.000
32.61008 97.000
32.64998 80.000
32.68988 76.000
32.72978 69.000
32.76968 78.000
32.80958 90.000
32.84948 76.000
32.88937 76.000
32.92927 65.000
32.96917 69.000
33.00907 73.000
33.04897 64.000
33.08887 67.000
33.12877 86.000
33.16867 88.000
33.20857 81.000
33.24847 83.000
33.28836 82.000
33.32826 74.000
33.36816 72.000
33.40806 84.000
33.44796 77.000
33.48786 89.000
33.52776 78.000
33.56766 74.000
33.60756 79.000
33.64746 87.000
33.68735 87.000
33.72725 85.000
33.76715 72.000
33.80705 68.000
33.84695 89.000
33.88685 57.000
33.92675 82.000
33.96665 74.000
34.00655 74.000
34.04644 70.000
34.08634 85.000
34.12624 59.000
34.16614 82.000
34.20604 97.000
34.24594 69.000
34.28584 83.000
34.32574 59.000
34.36564 76.000
34.40554 72.000
34.44543 62.000
34.48533 85.000
34.52523 69.000
34.56513 68.000
34.60503 70.000
34.64493 66.000
34.68483 61.000
34.72473 75.000
34.76463 66.000
34.80453 81.000
34.84442 80.000
34.88432 78.000
34.92422 70.000
34.96412 80.000
35.00402 77.000
35.04392 62.000
35.08382 73.000
35.12372 67.000
35.16362 81.000
35.20351 67.000
35.24341 74.000
35.28331 80.000
35.32321 64.000
35.36311 66.000
35.40301 69.000
35.44291 75.000
35.48281 74.000
35.52271 61.000
35.56261 76.000
35.60250 77.000
35.64240 89.000
35.68230 88.000
35.72220 86.000
35.76210 72.000
35.80200 61.000
35.84190 67.000
35.88180 64.000
35.92170 82.000
35.96159 69.000
36.00149 66.000
36.04139 78.000
36.08129 60.000
36.12119 65.000
36.16109 69.000
36.20099 68.000
36.24089 96.000
36.28079 74.000
36.32069 65.000
36.36058 74.000
36.40048 58.000
36.44038 65.000
36.48028 61.000
36.52018 69.000
36.56008 76.000
36.59998 75.000
36.63988 65.000
36.67978 53.000
36.71968 60.000
36.75957 54.000
36.79947 55.000
36.83937 83.000
36.87927 61.000
36.91917 66.000
36.95907 67.000
36.99897 64.000
37.03887 67.000
37.07877 51.000
37.11866 73.000
37.15856 79.000
37.19846 75.000
37.23836 70.000
37.27826 73.000
37.31816 60.000
37.35806 64.000
37.39796 80.000
37.43786 48.000
37.47776 51.000
37.51765 46.000
37.55755 57.000
37.59745 73.000
37.63735 58.000
37.67725 53.000
37.71715 61.000
37.75705 50.000
37.79695 55.000
37.83685 61.000
37.87675 69.000
37.91664 74.000
37.95654 75.000
37.99644 55.000
38.03634 62.000
38.07624 54.000
38.11614 55.000
38.15604 69.000
38.19594 74.000
38.23584 68.000
38.27573 63.000
38.31563 49.000
38.35553 61.000
38.39543 54.000
38.43533 57.000
38.47523 62.000
38.51513 63.000
38.55503 62.000
38.59493 51.000
38.63483 50.000
38.67472 59.000
38.71462 52.000
38.75452 59.000
38.79442 53.000
38.83432 61.000
38.87422 57.000
38.91412 59.000
38.95402 57.000
38.99392 47.000
39.03382 58.000
39.07371 68.000
39.11361 61.000
39.15351 62.000
39.19341 59.000
39.23331 64.000
39.27321 80.000
39.31311 60.000
39.35301 61.000
39.39291 69.000
39.43280 78.000
39.47270 59.000
39.51260 63.000
39.55250 66.000
39.59240 46.000
39.63230 64.000
39.67220 51.000
39.71210 45.000
39.75200 46.000
39.79190 64.000
39.83179 68.000
39.87169 58.000
39.91159 48.000
39.95149 70.000
39.99139 54.000
40.03129 47.000
40.07119 54.000
40.11109 54.000
40.15099 51.000
40.19088 57.000
40.23078 69.000
40.27068 61.000
40.31058 50.000
40.35048 45.000
40.39038 66.000
40.43028 49.000
40.47018 41.000
40.51008 43.000
40.54998 50.000
40.58987 43.000
40.62977 58.000
40.66967 62.000
40.70957 46.000
40.74947 62.000
40.78937 57.000
40.82927 57.000
40.86917 57.000
40.90907 62.000
40.94897 44.000
40.98886 55.000
41.02876 63.000
41.06866 59.000
41.10856 65.000
41.14846 57.000
41.18836 52.000
41.22826 76.000
41.26816 55.000
41.30806 54.000
41.34795 54.000
41.38785 58.000
41.42775 63.000
41.46765 52.000
41.50755 55.000
41.54745 56.000
41.58735 52.000
41.62725 64.000
41.66715 46.000
41.70705 49.000
41.74694 38.000
41.78684 47.000
41.82674 56.000
41.86664 43.000
41.90654 51.000
41.94644 50.000
41.98634 56.000
42.02624 71.000
42.06614 59.000
42.10604 63.000
42.14593 67.000
42.18583 54.000
42.22573 60.000
42.26563 61.000
42.30553 59.000
42.34543 56.000
42.38533 49.000
42.42523 59.000
42.46513 62.000
42.50502 63.000
42.54492 63.000
42.58482 58.000
42.62472 70.000
42.66462 64.000
42.70452 72.000
42.74442 49.000
42.78432 63.000
42.82422 62.000
42.86412 47.000
42.90401 45.000
42.94391 50.000
42.98381 51.000
43.02371 62.000
43.06361 59.000
43.10351 43.000
43.14341 53.000
43.18331 64.000
43.22321 50.000
43.26311 57.000
43.30300 61.000
43.34290 57.000
43.38280 61.000
43.42270 61.000
43.46260 54.000
43.50250 50.000
43.54240 53.000
43.58230 58.000
43.62220 49.000
43.66209 44.000
43.70199 50.000
43.74189 49.000
43.78179 61.000
43.82169 58.000
43.86159 64.000
43.90149 48.000
43.94139 59.000
43.98129 57.000
44.02119 50.000
44.06108 58.000
44.10098 55.000
44.14088 62.000
44.18078 47.000
44.22068 55.000
44.26058 63.000
44.30048 48.000
44.34038 44.000
44.38028 53.000
44.42017 52.000
44.46007 40.000
44.49997 57.000
44.53987 76.000
44.57977 63.000
44.61967 55.000
44.65957 60.000
44.69947 54.000
44.73937 54.000
44.77927 58.000
44.81916 36.000
44.85906 59.000
44.89896 59.000
44.93886 47.000
44.97876 56.000
45.01866 47.000
45.05856 51.000
45.09846 70.000
45.13836 45.000
45.17826 63.000
45.21815 48.000
45.25805 52.000
45.29795 37.000
45.33785 50.000
45.37775 50.000
45.41765 43.000
45.45755 55.000
45.49745 50.000
45.53735 59.000
45.57724 55.000
45.61714 55.000
45.65704 58.000
45.69694 51.000
45.73684 45.000
45.77674 54.000
45.81664 38.000
45.85654 54.000
45.89644 57.000
45.93634 62.000
45.97623 50.000
46.01613 66.000
46.05603 68.000
46.09593 54.000
46.13583 54.000
46.17573 68.000
46.21563 53.000
46.25553 48.000
46.29543 74.000
46.33533 67.000
46.37522 57.000
46.41512 55.000
46.45502 64.000
46.49492 50.000
46.53482 53.000
46.57472 51.000
46.61462 54.000
46.65452 43.000
46.69442 49.000
46.73431 45.000
46.77421 49.000
46.81411 59.000
46.85401 50.000
46.89391 63.000
46.93381 44.000
46.97371 55.000
47.01361 51.000
47.05351 56.000
47.09341 63.000
47.13330 53.000
47.17320 62.000
47.21310 57.000
47.25300 50.000
47.29290 43.000
47.33280 46.000
47.37270 61.000
47.41260 58.000
47.45250 57.000
47.49240 48.000
47.53229 47.000
47.57219 58.000
47.61209 44.000
47.65199 57.000
47.69189 55.000
47.73179 55.000
47.77169 53.000
47.81159 52.000
47.85149 60.000
47.89138 69.000
47.93128 67.000
47.97118 52.000
48.01108 55.000
48.05098 55.000
48.09088 53.000
48.13078 54.000
48.17068 44.000
48.21058 52.000
48.25048 51.000
48.29037 43.000
48.33027 58.000
48.37017 56.000
48.41007 56.000
48.44997 53.000
48.48987 55.000
48.52977 51.000
48.56967 51.000
48.60957 63.000
48.64946 63.000
48.68936 48.000
48.72926 61.000
48.76916 55.000
48.80906 42.000
48.84896 60.000
48.88886 50.000
48.92876 48.000
48.96866 60.000
49.00856 42.000
49.04845 57.000
49.08835 56.000
49.12825 47.000
49.16815 60.000
49.20805 49.000
49.24795 55.000
49.28785 43.000
49.32775 59.000
49.36765 47.000
49.40755 53.000
49.44744 53.000
49.48734 40.000
49.52724 48.000
49.56714 51.000
49.60704 55.000
49.64694 56.000
49.68684 36.000
49.72674 50.000
49.76664 60.000
49.80653 45.000
49.84643 51.000
49.88633 47.000
49.92623 53.000
49.96613 58.000
50.00603 60.000
50.04593 39.000
50.08583 58.000
50.12573 45.000
50.16563 59.000
50.20552 53.000
50.24542 51.000
50.28532 56.000
50.32522 52.000
50.36512 48.000
50.40502 40.000
50.44492 50.000
50.48482 50.000
50.52472 38.000
50.56462 47.000
50.60451 53.000
50.64441 54.000
50.68431 52.000
50.72421 56.000
50.76411 41.000
50.80401 51.000
50.84391 47.000
50.88381 41.000
50.92371 51.000
50.96360 49.000
51.00350 52.000
51.04340 44.000
51.08330 56.000
51.12320 42.000
51.16310 62.000
51.20300 47.000
51.24290 58.000
51.28280 53.000
51.32270 40.000
51.36259 61.000
51.40249 43.000
51.44239 40.000
51.48229 66.000
51.52219 55.000
51.56209 49.000
51.60199 32.000
51.64189 55.000
51.68179 59.000
51.72169 39.000
51.76158 58.000
51.80148 62.000
51.84138 51.000
51.88128 60.000
51.92118 46.000
51.96108 42.000
52.00098 49.000
52.04088 47.000
52.08078 50.000
52.12067 56.000
52.16057 51.000
52.20047 60.000
52.24037 41.000
52.28027 58.000
52.32017 38.000
52.36007 63.000
52.39997 56.000
52.43987 46.000
52.47977 43.000
52.51966 53.000
52.55956 43.000
52.59946 53.000
52.63936 30.000
52.67926 49.000
52.71916 44.000
52.75906 59.000
52.79896 55.000
52.83886 54.000
52.87876 45.000
52.91865 53.000
52.95855 50.000
52.99845 43.000
53.03835 55.000
53.07825 55.000
53.11815 53.000
53.15805 51.000
53.19795 63.000
53.23785 57.000
53.27774 49.000
53.31764 51.000
53.35754 35.000
53.39744 41.000
53.43734 52.000
53.47724 53.000
53.51714 60.000
53.55704 55.000
53.59694 55.000
53.63684 56.000
53.67673 33.000
53.71663 49.000
53.75653 51.000
53.79643 42.000
53.83633 59.000
53.87623 56.000
53.91613 51.000
53.95603 46.000
53.99593 62.000
54.03582 40.000
54.07572 49.000
54.11562 53.000
54.15552 56.000
54.19542 48.000
54.23532 43.000
54.27522 53.000
54.31512 51.000
54.35502 41.000
54.39492 59.000
54.43481 49.000
54.47471 56.000
54.51461 45.000
54.55451 51.000
54.59441 39.000
54.63431 52.000
54.67421 40.000
54.71411 50.000
54.75401 50.000
54.79391 43.000
54.83380 40.000
54.87370 49.000
54.91360 62.000
54.95350 50.000
54.99340 36.000
55.03330 49.000
55.07320 47.000
55.11310 51.000
55.15300 40.000
55.19289 54.000
55.23279 40.000
55.27269 56.000
55.31259 47.000
55.35249 56.000
55.39239 62.000
55.43229 44.000
55.47219 53.000
55.51209 53.000
55.55199 45.000
55.59188 40.000
55.63178 57.000
55.67168 47.000
55.71158 49.000
55.75148 44.000
55.79138 49.000
55.83128 50.000
55.87118 46.000
55.91108 50.000
55.95098 60.000
55.99087 50.000
56.03077 61.000
56.07067 36.000
56.11057 56.000
56.15047 61.000
56.19037 40.000
56.23027 54.000
56.27017 53.000
56.31007 54.000
56.34996 43.000
56.38986 53.000
56.42976 58.000
56.46966 52.000
56.50956 50.000
56.54946 63.000
56.58936 50.000
56.62926 44.000
56.66916 41.000
56.70906 48.000
56.74895 41.000
56.78885 49.000
56.82875 54.000
56.86865 49.000
56.90855 68.000
56.94845 48.000
56.98835 52.000
57.02825 43.000
57.06815 50.000
57.10805 43.000
57.14794 64.000
57.18784 49.000
57.22774 47.000
57.26764 60.000
57.30754 57.000
57.34744 53.000
57.38734 43.000
57.42724 61.000
57.46714 35.000
57.50703 59.000
57.54693 46.000
57.58683 46.000
57.62673 59.000
57.66663 49.000
57.70653 45.000
57.74643 39.000
57.78633 62.000
57.82623 46.000
57.86613 50.000
57.90602 50.000
57.94592 46.000
57.98582 50.000
58.02572 58.000
58.06562 35.000
58.10552 73.000
58.14542 59.000
58.18532 34.000
58.22522 40.000
58.26511 44.000
58.30501 39.000
58.34491 62.000
58.38481 58.000
58.42471 43.000
58.46461 52.000
58.50451 50.000
58.54441 40.000
58.58431 41.000
58.62421 50.000
58.66410 55.000
58.70400 46.000
58.74390 41.000
58.78380 47.000
58.82370 52.000
58.86360 46.000
58.90350 50.000
58.94340 54.000
58.98330 46.000
59.02320 52.000
59.06309 44.000
59.10299 41.000
59.14289 49.000
59.18279 50.000
59.22269 38.000
59.26259 52.000
59.30249 41.000
59.34239 37.000
59.38229 54.000
59.42218 50.000
59.46208 55.000
59.50198 39.000
59.54188 43.000
59.58178 51.000
59.62168 46.000
59.66158 51.000
59.70148 58.000
59.74138 45.000
59.78128 54.000
59.82117 53.000
59.86107 53.000
59.90097 45.000
59.94087 60.000
59.98077 60.000
60.02067 66.000
60.06057 60.000
60.10047 46.000
60.14037 54.000
60.18027 45.000
60.22016 65.000
60.26006 42.000
60.29996 51.000
60.33986 54.000
60.37976 43.000
60.41966 57.000
60.45956 42.000
60.49946 67.000
60.53936 37.000
60.57925 57.000
60.61915 45.000
60.65905 62.000
60.69895 61.000
60.73885 49.000
60.77875 47.000
60.81865 48.000
60.85855 40.000
60.89845 53.000
60.93835 54.000
60.97824 48.000
61.01814 62.000
61.05804 54.000
61.09794 57.000
61.13784 52.000
61.17774 47.000
61.21764 63.000
61.25754 39.000
61.29744 54.000
61.33734 47.000
61.37723 36.000
61.41713 50.000
61.45703 57.000
61.49693 62.000
61.53683 49.000
61.57673 46.000
61.61663 50.000
61.65653 62.000
61.69643 48.000
61.73632 59.000
61.77622 50.000
61.81612 50.000
61.85602 56.000
61.89592 39.000
61.93582 51.000
61.97572 49.000
62.01562 54.000
62.05552 48.000
62.09542 61.000
62.13531 49.000
62.17521 41.000
62.21511 55.000
62.25501 44.000
62.29491 48.000
62.33481 52.000
62.37471 50.000
62.41461 44.000
62.45451 62.000
62.49440 52.000
62.53430 59.000
62.57420 47.000
62.61410 38.000
62.65400 51.000
62.69390 55.000
62.73380 54.000
62.77370 60.000
62.81360 49.000
62.85350 48.000
62.89339 38.000
62.93329 49.000
62.97319 57.000
63.01309 50.000
63.05299 60.000
63.09289 43.000
63.13279 51.000
63.17269 72.000
63.21259 43.000
63.25249 52.000
63.29238 45.000
63.33228 38.000
63.37218 45.000
63.41208 47.000
63.45198 46.000
63.49188 56.000
63.53178 44.000
63.57168 53.000
63.61158 48.000
63.65147 55.000
63.69137 43.000
63.73127 58.000
63.77117 40.000
63.81107 53.000
63.85097 50.000
63.89087 44.000
63.93077 40.000
63.97067 61.000
64.01057 55.000
64.05046 51.000
64.09036 41.000
64.13026 59.000
64.17016 41.000
64.21006 41.000
64.24996 35.000
64.28986 65.000
64.32976 44.000
64.36966 46.000
64.40956 61.000
64.44945 44.000
64.48935 44.000
64.52925 41.000
64.56915 45.000
64.60905 53.000
64.64895 50.000
64.68885 47.000
64.72875 48.000
64.76865 41.000
64.80854 36.000
64.84844 55.000
64.88834 44.000
64.92824 54.000
64.96814 50.000
65.00804 51.000
65.04794 53.000
65.08784 43.000
65.12774 46.000
65.16764 45.000
65.20753 55.000
65.24743 58.000
65.28733 46.000
65.32723 44.000
65.36713 51.000
65.40703 51.000
65.44693 52.000
65.48683 50.000
65.52673 46.000
65.56663 42.000
65.60652 47.000
65.64642 53.000
65.68632 52.000
65.72622 45.000
65.76612 52.000
65.80602 50.000
65.84592 52.000
65.88582 47.000
65.92572 59.000
65.96561 45.000
66.00551 57.000
66.04541 47.000
66.08531 38.000
66.12521 55.000
66.16511 45.000
66.20501 52.000
66.24491 46.000
66.28481 53.000
66.32471 55.000
66.36460 43.000
66.40450 46.000
66.44440 41.000
66.48430 43.000
66.52420 44.000
66.56410 52.000
66.60400 44.000
66.64390 53.000
66.68380 50.000
66.72370 65.000
66.76359 48.000
66.80349 48.000
66.84339 45.000
66.88329 33.000
66.92319 60.000
66.96309 54.000
67.00299 49.000
67.04289 54.000
67.08279 55.000
67.12268 51.000
67.16258 46.000
67.20248 48.000
67.24238 57.000
67.28228 44.000
67.32218 43.000
67.36208 51.000
67.40198 57.000
67.44188 58.000
67.48178 42.000
67.52167 53.000
67.56157 43.000
67.60147 43.000
67.64137 57.000
67.68127 44.000
67.72117 48.000
67.76107 41.000
67.80097 56.000
67.84087 48.000
67.88076 55.000
67.92066 41.000
67.96056 50.000
68.00046 41.000
68.04036 53.000
68.08026 48.000
68.12016 49.000
68.16006 65.000
68.19996 39.000
68.23986 42.000
68.27975 48.000
68.31965 51.000
68.35955 50.000
68.39945 35.000
68.43935 40.000
68.47925 47.000
68.51915 45.000
68.55905 46.000
68.59895 49.000
68.63885 54.000
68.67874 55.000
68.71864 53.000
68.75854 39.000
68.79844 53.000
68.83834 62.000
68.87824 39.000
68.91814 47.000
68.95804 46.000
68.99794 45.000
69.03783 47.000
69.07773 45.000
69.11763 45.000
69.15753 37.000
69.19743 49.000
69.23733 49.000
69.27723 45.000
69.31713 46.000
69.35703 49.000
69.39693 53.000
69.43682 48.000
69.47672 61.000
69.51662 53.000
69.55652 37.000
69.59642 47.000
69.63632 53.000
69.67622 51.000
69.71612 48.000
69.75602 56.000
69.79592 42.000
69.83581 42.000
69.87571 36.000
69.91561 46.000
69.95551 51.000
69.99541 52.000
70.03531 60.000
70.07521 50.000
70.11511 46.000
70.15501 37.000
70.19490 41.000
70.23480 48.000
70.27470 49.000
70.31460 56.000
70.35450 57.000
70.39440 45.000
70.43430 46.000
70.47420 55.000
70.51410 57.000
70.55400 51.000
70.59389 42.000
70.63379 51.000
70.67369 45.000
70.71359 55.000
70.75349 46.000
70.79339 39.000
70.83329 45.000
70.87319 40.000
70.91309 40.000
70.95299 37.000
70.99288 44.000
71.03278 46.000
71.07268 41.000
71.11258 31.000
71.15248 45.000
71.19238 52.000
71.23228 53.000
71.27218 42.000
71.31208 42.000
71.35197 48.000
71.39187 49.000
71.43177 43.000
71.47167 45.000
71.51157 50.000
71.55147 51.000
71.59137 32.000
71.63127 41.000
71.67117 41.000
71.71107 53.000
71.75096 35.000
71.79086 52.000
71.83076 45.000
71.87066 36.000
71.91056 58.000
71.95046 44.000
71.99036 44.000
72.03026 43.000
72.07016 51.000
72.11005 46.000
72.14995 55.000
72.18985 44.000
72.22975 46.000
72.26965 38.000
72.30955 39.000
72.34945 50.000
72.38935 42.000
72.42925 48.000
72.46915 36.000
72.50904 44.000
72.54894 47.000
72.58884 46.000
72.62874 41.000
72.66864 47.000
72.70854 47.000
72.74844 62.000
72.78834 45.000
72.82824 41.000
72.86814 58.000
72.90803 41.000
72.94793 36.000
72.98783 46.000
73.02773 56.000
73.06763 44.000
73.10753 45.000
73.14743 46.000
73.18733 53.000
73.22723 37.000
73.26712 46.000
73.30702 45.000
73.34692 50.000
73.38682 52.000
73.42672 42.000
73.46662 40.000
73.50652 48.000
73.54642 37.000
73.58632 29.000
73.62622 58.000
73.66611 52.000
73.70601 44.000
73.74591 53.000
73.78581 47.000
73.82571 43.000
73.86561 51.000
73.90551 47.000
73.94541 40.000
73.98531 39.000
74.02521 47.000
74.06510 34.000
74.10500 48.000
74.14490 42.000
74.18480 43.000
74.22470 56.000
74.26460 35.000
74.30450 49.000
74.34440 31.000
74.38430 46.000
74.42419 36.000
74.46409 57.000
74.50399 45.000
74.54389 41.000
74.58379 56.000
74.62369 34.000
74.66359 55.000
74.70349 42.000
74.74339 41.000
74.78329 42.000
74.82318 35.000
74.86308 50.000
74.90298 44.000
74.94288 55.000
74.98278 39.000
75.02268 37.000
75.06258 45.000
75.10248 52.000
75.14238 45.000
75.18228 48.000
75.22217 38.000
75.26207 53.000
75.30197 50.000
75.34187 43.000
75.38177 49.000
75.42167 38.000
75.46157 60.000
75.50147 60.000
75.54137 50.000
75.58126 37.000
75.62116 37.000
75.66106 41.000
75.70096 61.000
75.74086 51.000
75.78076 53.000
75.82066 39.000
75.86056 54.000
75.90046 41.000
75.94036 51.000
75.98025 48.000
76.02015 47.000
76.06005 42.000
76.09995 63.000
76.13985 48.000
76.17975 48.000
76.21965 49.000
76.25955 45.000
76.29945 37.000
76.33934 50.000
76.37924 36.000
76.41914 33.000
76.45904 42.000
76.49894 44.000
76.53884 46.000
76.57874 53.000
76.61864 57.000
76.65854 54.000
76.69844 36.000
76.73833 44.000
76.77823 56.000
76.81813 43.000
76.85803 49.000
76.89793 53.000
76.93783 46.000
76.97773 46.000
77.01763 41.000
77.05753 36.000
77.09743 42.000
77.13732 46.000
77.17722 57.000
77.21712 49.000
77.25702 43.000
77.29692 43.000
77.33682 52.000
77.37672 44.000
77.41662 51.000
77.45652 46.000
77.49641 48.000
77.53631 41.000
77.57621 46.000
77.61611 41.000
77.65601 42.000
77.69591 50.000
77.73581 40.000
77.77571 43.000
77.81561 40.000
77.85551 39.000
77.89540 42.000
77.93530 37.000
77.97520 37.000
78.01510 56.000
78.05500 49.000
78.09490 34.000
78.13480 40.000
78.17470 45.000
78.21460 54.000
78.25450 37.000
78.29439 39.000
78.33429 45.000
78.37419 44.000
78.41409 54.000
78.45399 41.000
78.49389 48.000
78.53379 49.000
78.57369 51.000
78.61359 40.000
78.65348 38.000
78.69338 39.000
78.73328 52.000
78.77318 46.000
78.81308 46.000
78.85298 52.000
78.89288 34.000
78.93278 43.000
78.97268 43.000
79.01258 54.000
79.05247 40.000
79.09237 48.000
79.13227 53.000
79.17217 36.000
79.21207 51.000
79.25197 45.000
79.29187 47.000
79.33177 45.000
79.37167 38.000
79.41157 39.000
79.45146 46.000
79.49136 35.000
79.53126 51.000
79.57116 54.000
79.61106 41.000
79.65096 39.000
79.69086 42.000
79.73076 37.000
79.77066 40.000
79.81055 41.000
79.85045 52.000
79.89035 36.000
79.93025 46.000
79.97015 52.000
80.01005 40.000
80.04995 57.000
80.08985 42.000
80.12975 35.000
80.16965 49.000
80.20954 46.000
80.24944 34.000
80.28934 44.000
