5.00000 64.000
5.03990 74.000
5.07980 82.000
5.11970 57.000
5.15960 66.000
5.19949 77.000
5.23939 74.000
5.27929 71.000
5.31919 84.000
5.35909 89.000
5.39899 78.000
5.43889 74.000
5.47879 69.000
5.51869 69.000
5.55859 52.000
5.59848 77.000
5.63838 79.000
5.67828 75.000
5.71818 84.000
5.75808 79.000
5.79798 81.000
5.83788 79.000
5.87778 86.000
5.91768 76.000
5.95758 88.000
5.99747 99.000
6.03737 87.000
6.07727 78.000
6.11717 94.000
6.15707 73.000
6.19697 82.000
6.23687 92.000
6.27677 100.000
6.31667 84.000
6.35656 85.000
6.39646 75.000
6.43636 82.000
6.47626 69.000
6.51616 97.000
6.55606 74.000
6.59596 93.000
6.63586 100.000
6.67576 100.000
6.71566 90.000
6.75555 87.000
6.79545 108.000
6.83535 99.000
6.87525 83.000
6.91515 96.000
6.95505 93.000
6.99495 83.000
7.03485 78.000
7.07475 104.000
7.11465 89.000
7.15454 90.000
7.19444 98.000
7.23434 95.000
7.27424 95.000
7.31414 94.000
7.35404 99.000
7.39394 110.000
7.43384 82.000
7.47374 81.000
7.51363 91.000
7.55353 93.000
7.59343 101.000
7.63333 90.000
7.67323 64.000
7.71313 78.000
7.75303 91.000
7.79293 98.000
7.83283 89.000
7.87273 95.000
7.91262 79.000
7.95252 98.000
7.99242 84.000
8.03232 83.000
8.07222 115.000
8.11212 101.000
8.15202 116.000
8.19192 85.000
8.23182 92.000
8.27171 94.000
8.31161 98.000
8.35151 101.000
8.39141 89.000
8.43131 86.000
8.47121 115.000
8.51111 109.000
8.55101 82.000
8.59091 102.000
8.63081 91.000
8.67070 100.000
8.71060 100.000
8.75050 100.000
8.79040 90.000
8.83030 96.000
8.87020 89.000
8.91010 103.000
8.95000 90.000
8.98990 120.000
9.02980 108.000
9.06969 114.000
9.10959 118.000
9.14949 104.000
9.18939 117.000
9.22929 105.000
9.26919 94.000
9.30909 106.000
9.34899 97.000
9.38889 92.000
9.42878 91.000
9.46868 101.000
9.50858 86.000
9.54848 92.000
9.58838 95.000
9.62828 95.000
9.66818 105.000
9.70808 96.000
9.74798 112.000
9.78788 109.000
9.82777 118.000
9.86767 97.000
9.90757 104.000
9.94747 102.000
9.98737 115.000
10.02727 113.000
10.06717 127.000
10.10707 104.000
10.14697 106.000
10.18687 114.000
10.22676 121.000
10.26666 104.000
10.30656 109.000
10.34646 97.000
10.38636 124.000
10.42626 110.000
10.46616 109.000
10.50606 121.000
10.54596 114.000
10.58585 124.000
10.62575 108.000
10.66565 117.000
10.70555 99.000
10.74545 114.000
10.78535 102.000
10.82525 111.000
10.86515 111.000
10.90505 114.000
10.94495 116.000
10.98484 129.000
11.02474 111.000
11.06464 102.000
11.10454 101.000
11.14444 110.000
11.18434 119.000
11.22424 134.000
11.26414 122.000
11.30404 131.000
11.34394 122.000
11.38383 131.000
11.42373 113.000
11.46363 97.000
11.50353 125.000
11.54343 112.000
11.58333 126.000
11.62323 112.000
11.66313 116.000
11.70303 96.000
11.74292 144.000
11.78282 128.000
11.82272 123.000
11.86262 109.000
11.90252 107.000
11.94242 110.000
11.98232 115.000
12.02222 116.000
12.06212 116.000
12.10202 117.000
12.14191 112.000
12.18181 104.000
12.22171 130.000
12.26161 122.000
12.30151 120.000
12.34141 120.000
12.38131 120.000
12.42121 142.000
12.46111 104.000
12.50100 119.000
12.54090 119.000
12.58080 120.000
12.62070 132.000
12.66060 134.000
12.70050 116.000
12.74040 115.000
12.78030 130.000
12.82020 122.000
12.86010 127.000
12.89999 112.000
12.93989 113.000
12.97979 137.000
13.01969 128.000
13.05959 102.000
13.09949 127.000
13.13939 103.000
13.17929 128.000
13.21919 128.000
13.25909 109.000
13.29898 108.000
13.33888 108.000
13.37878 119.000
13.41868 97.000
13.45858 118.000
13.49848 115.000
13.53838 130.000
13.57828 103.000
13.61818 112.000
13.65807 116.000
13.69797 133.000
13.73787 143.000
13.77777 131.000
13.81767 104.000
13.85757 132.000
13.89747 126.000
13.93737 124.000
13.97727 118.000
14.01717 135.000
14.05706 127.000
14.09696 129.000
14.13686 111.000
14.17676 126.000
14.21666 133.000
14.25656 118.000
14.29646 127.000
14.33636 130.000
14.37626 103.000
14.41616 129.000
14.45605 150.000
14.49595 143.000
14.53585 118.000
14.57575 130.000
14.61565 128.000
14.65555 121.000
14.69545 134.000
14.73535 138.000
14.77525 118.000
14.81514 124.000
14.85504 135.000
14.89494 129.000
14.93484 120.000
14.97474 129.000
15.01464 124.000
15.05454 127.000
15.09444 147.000
15.13434 125.000
15.17424 140.000
15.21413 141.000
15.25403 104.000
15.29393 153.000
15.33383 129.000
15.37373 135.000
15.41363 131.000
15.45353 145.000
15.49343 124.000
15.53333 121.000
15.57323 140.000
15.61312 142.000
15.65302 128.000
15.69292 143.000
15.73282 136.000
15.77272 147.000
15.81262 149.000
15.85252 134.000
15.89242 138.000
15.93232 136.000
15.97221 120.000
16.01211 157.000
16.05201 146.000
16.09191 145.000
16.13181 143.000
16.17171 140.000
16.21161 152.000
16.25151 128.000
16.29141 138.000
16.33131 149.000
16.37120 158.000
16.41110 155.000
16.45100 160.000
16.49090 147.000
16.53080 148.000
16.57070 163.000
16.61060 142.000
16.65050 175.000
16.69040 152.000
16.73029 144.000
16.77019 145.000
16.81009 161.000
16.84999 173.000
16.88989 174.000
16.92979 149.000
16.96969 181.000
17.00959 160.000
17.04949 185.000
17.08939 164.000
17.12928 143.000
17.16918 170.000
17.20908 137.000
17.24898 166.000
17.28888 170.000
17.32878 182.000
17.36868 158.000
17.40858 158.000
17.44848 160.000
17.48838 151.000
17.52827 145.000
17.56817 160.000
17.60807 163.000
17.64797 152.000
17.68787 170.000
17.72777 189.000
17.76767 162.000
17.80757 164.000
17.84747 180.000
17.88736 158.000
17.92726 188.000
17.96716 189.000
18.00706 172.000
18.04696 185.000
18.08686 173.000
18.12676 202.000
18.16666 189.000
18.20656 194.000
18.24646 180.000
18.28635 204.000
18.32625 184.000
18.36615 204.000
18.40605 185.000
18.44595 164.000
18.48585 182.000
18.52575 184.000
18.56565 183.000
18.60555 179.000
18.64545 177.000
18.68534 230.000
18.72524 197.000
18.76514 199.000
18.80504 222.000
18.84494 196.000
18.88484 187.000
18.92474 190.000
18.96464 164.000
19.00454 222.000
19.04443 206.000
19.08433 212.000
19.12423 199.000
19.16413 206.000
19.20403 187.000
19.24393 218.000
19.28383 185.000
19.32373 219.000
19.36363 202.000
19.40353 226.000
19.44342 235.000
19.48332 212.000
19.52322 208.000
19.56312 237.000
19.60302 198.000
19.64292 200.000
19.68282 210.000
19.72272 198.000
19.76262 188.000
19.80252 263.000
19.84241 222.000
19.88231 184.000
19.92221 228.000
19.96211 214.000
20.00201 190.000
20.04191 200.000
20.08181 225.000
20.12171 228.000
20.16161 242.000
20.20150 176.000
20.24140 238.000
20.28130 242.000
20.32120 234.000
20.36110 230.000
20.40100 228.000
20.44090 233.000
20.48080 242.000
20.52070 205.000
20.56060 239.000
20.60049 250.000
20.64039 214.000
20.68029 217.000
20.72019 222.000
20.76009 229.000
20.79999 224.000
20.83989 248.000
20.87979 216.000
20.91969 221.000
20.95959 233.000
20.99948 208.000
21.03938 227.000
21.07928 219.000
21.11918 239.000
21.15908 230.000
21.19898 239.000
21.23888 244.000
21.27878 232.000
21.31868 244.000
21.35857 258.000
21.39847 229.000
21.43837 235.000
21.47827 232.000
21.51817 232.000
21.55807 234.000
21.59797 227.000
21.63787 232.000
21.67777 211.000
21.71767 243.000
21.75756 228.000
21.79746 229.000
21.83736 229.000
21.87726 236.000
21.91716 212.000
21.95706 226.000
21.99696 243.000
22.03686 244.000
22.07676 223.000
22.11665 239.000
22.15655 226.000
22.19645 213.000
22.23635 235.000
22.27625 238.000
22.31615 246.000
22.35605 243.000
22.39595 239.000
22.43585 227.000
22.47575 265.000
22.51564 227.000
22.55554 214.000
22.59544 222.000
22.63534 221.000
22.67524 244.000
22.71514 226.000
22.75504 208.000
22.79494 202.000
22.83484 203.000
22.87474 226.000
22.91463 228.000
22.95453 224.000
22.99443 220.000
23.03433 209.000
23.07423 248.000
23.11413 226.000
23.15403 217.000
23.19393 219.000
23.23383 213.000
23.27372 231.000
23.31362 193.000
23.35352 223.000
23.39342 208.000
23.43332 212.000
23.47322 225.000
23.51312 208.000
23.55302 207.000
23.59292 185.000
23.63282 231.000
23.67271 188.000
23.71261 205.000
23.75251 217.000
23.79241 211.000
23.83231 204.000
23.87221 182.000
23.91211 216.000
23.95201 211.000
23.99191 202.000
24.03181 227.000
24.07170 212.000
24.11160 208.000
24.15150 210.000
24.19140 207.000
24.23130 222.000
24.27120 222.000
24.31110 224.000
24.35100 201.000
24.39090 211.000
24.43079 226.000
24.47069 193.000
24.51059 190.000
24.55049 206.000
24.59039 235.000
24.63029 200.000
24.67019 201.000
24.71009 219.000
24.74999 206.000
24.78989 196.000
24.82978 218.000
24.86968 192.000
24.90958 188.000
24.94948 206.000
24.98938 189.000
25.02928 207.000
25.06918 188.000
25.10908 198.000
25.14898 196.000
25.18888 215.000
25.22877 211.000
25.26867 211.000
25.30857 168.000
25.34847 185.000
25.38837 192.000
25.42827 190.000
25.46817 203.000
25.50807 190.000
25.54797 179.000
25.58786 176.000
25.62776 197.000
25.66766 177.000
25.70756 212.000
25.74746 186.000
25.78736 158.000
25.82726 160.000
25.86716 189.000
25.90706 162.000
25.94696 174.000
25.98685 184.000
26.02675 176.000
26.06665 174.000
26.10655 217.000
26.14645 182.000
26.18635 188.000
26.22625 187.000
26.26615 167.000
26.30605 195.000
26.34594 188.000
26.38584 172.000
26.42574 188.000
26.46564 171.000
26.50554 173.000
26.54544 170.000
26.58534 162.000
26.62524 185.000
26.66514 175.000
26.70504 185.000
26.74493 207.000
26.78483 166.000
26.82473 161.000
26.86463 200.000
26.90453 166.000
26.94443 176.000
26.98433 171.000
27.02423 177.000
27.06413 179.000
27.10403 193.000
27.14392 155.000
27.18382 157.000
27.22372 178.000
27.26362 176.000
27.30352 186.000
27.34342 191.000
27.38332 164.000
27.42322 194.000
27.46312 204.000
27.50301 200.000
27.54291 185.000
27.58281 173.000
27.62271 214.000
27.66261 198.000
27.70251 178.000
27.74241 175.000
27.78231 173.000
27.82221 174.000
27.86211 167.000
27.90200 180.000
27.94190 188.000
27.98180 182.000
28.02170 165.000
28.06160 168.000
28.10150 175.000
28.14140 157.000
28.18130 172.000
28.22120 174.000
28.26110 183.000
28.30099 155.000
28.34089 167.000
28.38079 182.000
28.42069 165.000
28.46059 166.000
28.50049 172.000
28.54039 147.000
28.58029 169.000
28.62019 150.000
28.66008 162.000
28.69998 155.000
28.73988 134.000
28.77978 170.000
28.81968 153.000
28.85958 143.000
28.89948 175.000
28.93938 169.000
28.97928 163.000
29.01918 159.000
29.05907 132.000
29.09897 160.000
29.13887 179.000
29.17877 163.000
29.21867 175.000
29.25857 162.000
29.29847 168.000
29.33837 183.000
29.37827 178.000
29.41817 163.000
29.45806 178.000
29.49796 161.000
29.53786 189.000
29.57776 165.000
29.61766 177.000
29.65756 146.000
29.69746 174.000
29.73736 173.000
29.77726 158.000
29.81715 166.000
29.85705 165.000
29.89695 143.000
29.93685 154.000
29.97675 176.000
30.01665 181.000
30.05655 173.000
30.09645 183.000
30.13635 168.000
30.17625 150.000
30.21614 177.000
30.25604 157.000
30.29594 173.000
30.33584 180.000
30.37574 151.000
30.41564 155.000
30.45554 134.000
30.49544 193.000
30.53534 140.000
30.57523 166.000
30.61513 136.000
30.65503 150.000
30.69493 154.000
30.73483 157.000
30.77473 152.000
30.81463 163.000
30.85453 155.000
30.89443 153.000
30.93433 148.000
30.97422 176.000
31.01412 172.000
31.05402 157.000
31.09392 149.000
31.13382 165.000
31.17372 178.000
31.21362 138.000
31.25352 170.000
31.29342 158.000
31.33332 161.000
31.37321 158.000
31.41311 147.000
31.45301 146.000
31.49291 149.000
31.53281 158.000
31.57271 145.000
31.61261 179.000
31.65251 172.000
31.69241 158.000
31.73230 150.000
31.77220 172.000
31.81210 154.000
31.85200 180.000
31.89190 139.000
31.93180 146.000
31.97170 162.000
32.01160 153.000
32.05150 164.000
32.09140 159.000
32.13129 162.000
32.17119 147.000
32.21109 134.000
32.25099 150.000
32.29089 170.000
32.33079 162.000
32.37069 153.000
32.41059 167.000
32.45049 156.000
32.49039 154.000
32.53028 175.000
32.57018 168.000
32.61008 183.000
32.64998 200.000
32.68988 184.000
32.72978 161.000
32.76968 182.000
32.80958 199.000
32.84948 194.000
32.88937 230.000
32.92927 200.000
32.96917 188.000
33.00907 177.000
33.04897 193.000
33.08887 153.000
33.12877 167.000
33.16867 169.000
33.20857 165.000
33.24847 166.000
33.28836 159.000
33.32826 167.000
33.36816 153.000
33.40806 150.000
33.44796 139.000
33.48786 139.000
33.52776 133.000
33.56766 160.000
33.60756 175.000
33.64746 170.000
33.68735 132.000
33.72725 175.000
33.76715 148.000
33.80705 152.000
33.84695 148.000
33.88685 149.000
33.92675 145.000
33.96665 140.000
34.00655 140.000
34.04644 145.000
34.08634 139.000
34.12624 131.000
34.16614 172.000
34.20604 141.000
34.24594 137.000
34.28584 154.000
34.32574 159.000
34.36564 136.000
34.40554 159.000
34.44543 159.000
34.48533 144.000
34.52523 135.000
34.56513 142.000
34.60503 143.000
34.64493 139.000
34.68483 151.000
34.72473 153.000
34.76463 144.000
34.80453 151.000
34.84442 149.000
34.88432 142.000
34.92422 141.000
34.96412 140.000
35.00402 151.000
35.04392 163.000
35.08382 198.000
35.12372 173.000
35.16362 151.000
35.20351 150.000
35.24341 135.000
35.28331 167.000
35.32321 134.000
35.36311 148.000
35.40301 169.000
35.44291 145.000
35.48281 145.000
35.52271 146.000
35.56261 147.000
35.60250 155.000
35.64240 193.000
35.68230 132.000
35.72220 149.000
35.76210 139.000
35.80200 172.000
35.84190 138.000
35.88180 147.000
35.92170 138.000
35.96159 166.000
36.00149 153.000
36.04139 140.000
36.08129 153.000
36.12119 156.000
36.16109 142.000
36.20099 118.000
36.24089 154.000
36.28079 158.000
36.32069 158.000
36.36058 151.000
36.40048 165.000
36.44038 143.000
36.48028 170.000
36.52018 154.000
36.56008 147.000
36.59998 171.000
36.63988 163.000
36.67978 160.000
36.71968 143.000
36.75957 145.000
36.79947 147.000
36.83937 152.000
36.87927 134.000
36.91917 138.000
36.95907 147.000
36.99897 157.000
37.03887 156.000
37.07877 138.000
37.11866 152.000
37.15856 138.000
37.19846 158.000
37.23836 168.000
37.27826 119.000
37.31816 125.000
37.35806 163.000
37.39796 144.000
37.43786 149.000
37.47776 120.000
37.51765 132.000
37.55755 127.000
37.59745 145.000
37.63735 134.000
37.67725 149.000
37.71715 115.000
37.75705 122.000
37.79695 134.000
37.83685 128.000
37.87675 160.000
37.91664 141.000
37.95654 142.000
37.99644 137.000
38.03634 145.000
38.07624 137.000
38.11614 139.000
38.15604 153.000
38.19594 136.000
38.23584 128.000
38.27573 147.000
38.31563 149.000
38.35553 152.000
38.39543 171.000
38.43533 130.000
38.47523 132.000
38.51513 139.000
38.55503 141.000
38.59493 122.000
38.63483 134.000
38.67472 135.000
38.71462 138.000
38.75452 133.000
38.79442 129.000
38.83432 149.000
38.87422 143.000
38.91412 149.000
38.95402 141.000
38.99392 121.000
39.03382 116.000
39.07371 131.000
39.11361 140.000
39.15351 137.000
39.19341 146.000
39.23331 126.000
39.27321 127.000
39.31311 144.000
39.35301 132.000
39.39291 132.000
39.43280 144.000
39.47270 144.000
39.51260 139.000
39.55250 139.000
39.59240 141.000
39.63230 122.000
39.67220 125.000
39.71210 115.000
39.75200 133.000
39.79190 108.000
39.83179 147.000
39.87169 159.000
39.91159 118.000
39.95149 137.000
39.99139 133.000
40.03129 134.000
40.07119 132.000
40.11109 148.000
40.15099 172.000
40.19088 137.000
40.23078 131.000
40.27068 163.000
40.31058 130.000
40.35048 154.000
40.39038 148.000
40.43028 138.000
40.47018 126.000
40.51008 138.000
40.54998 131.000
40.58987 142.000
40.62977 132.000
40.66967 117.000
40.70957 151.000
40.74947 145.000
40.78937 121.000
40.82927 137.000
40.86917 135.000
40.90907 131.000
40.94897 121.000
40.98886 137.000
41.02876 138.000
41.06866 154.000
41.10856 140.000
41.14846 130.000
41.18836 145.000
41.22826 133.000
41.26816 126.000
41.30806 127.000
41.34795 142.000
41.38785 137.000
41.42775 139.000
41.46765 127.000
41.50755 136.000
41.54745 130.000
41.58735 124.000
41.62725 133.000
41.66715 124.000
41.70705 132.000
41.74694 119.000
41.78684 117.000
41.82674 123.000
41.86664 136.000
41.90654 120.000
41.94644 103.000
41.98634 122.000
42.02624 149.000
42.06614 142.000
42.10604 117.000
42.14593 136.000
42.18583 138.000
42.22573 123.000
42.26563 109.000
42.30553 149.000
42.34543 153.000
42.38533 131.000
42.42523 122.000
42.46513 133.000
42.50502 139.000
42.54492 127.000
42.58482 133.000
42.62472 140.000
42.66462 141.000
42.70452 145.000
42.74442 114.000
42.78432 123.000
42.82422 123.000
42.86412 125.000
42.90401 120.000
42.94391 138.000
42.98381 141.000
43.02371 142.000
43.06361 134.000
43.10351 134.000
43.14341 118.000
43.18331 126.000
43.22321 132.000
43.26311 123.000
43.30300 138.000
43.34290 133.000
43.38280 121.000
43.42270 154.000
43.46260 128.000
43.50250 136.000
43.54240 131.000
43.58230 120.000
43.62220 120.000
43.66209 122.000
43.70199 125.000
43.74189 102.000
43.78179 134.000
43.82169 139.000
43.86159 137.000
43.90149 138.000
43.94139 127.000
43.98129 139.000
44.02119 135.000
44.06108 135.000
44.10098 136.000
44.14088 131.000
44.18078 122.000
44.22068 124.000
44.26058 122.000
44.30048 133.000
44.34038 146.000
44.38028 133.000
44.42017 144.000
44.46007 161.000
44.49997 133.000
44.53987 124.000
44.57977 136.000
44.61967 132.000
44.65957 117.000
44.69947 139.000
44.73937 139.000
44.77927 139.000
44.81916 122.000
44.85906 144.000
44.89896 144.000
44.93886 122.000
44.97876 130.000
45.01866 122.000
45.05856 125.000
45.09846 124.000
45.13836 115.000
45.17826 123.000
45.21815 131.000
45.25805 126.000
45.29795 110.000
45.33785 142.000
45.37775 140.000
45.41765 125.000
45.45755 145.000
45.49745 126.000
45.53735 128.000
45.57724 127.000
45.61714 132.000
45.65704 109.000
45.69694 130.000
45.73684 121.000
45.77674 116.000
45.81664 122.000
45.85654 147.000
45.89644 118.000
45.93634 137.000
45.97623 122.000
46.01613 118.000
46.05603 98.000
46.09593 140.000
46.13583 134.000
46.17573 126.000
46.21563 113.000
46.25553 138.000
46.29543 126.000
46.33533 134.000
46.37522 104.000
46.41512 130.000
46.45502 129.000
46.49492 109.000
46.53482 126.000
46.57472 126.000
46.61462 146.000
46.65452 119.000
46.69442 120.000
46.73431 141.000
46.77421 140.000
46.81411 146.000
46.85401 142.000
46.89391 131.000
46.93381 127.000
46.97371 148.000
47.01361 127.000
47.05351 132.000
47.09341 137.000
47.13330 146.000
47.17320 141.000
47.21310 124.000
47.25300 129.000
47.29290 124.000
47.33280 136.000
47.37270 137.000
47.41260 174.000
47.45250 126.000
47.49240 131.000
47.53229 131.000
47.57219 150.000
47.61209 126.000
47.65199 161.000
47.69189 121.000
47.73179 138.000
47.77169 123.000
47.81159 107.000
47.85149 126.000
47.89138 117.000
47.93128 117.000
47.97118 130.000
48.01108 125.000
48.05098 150.000
48.09088 126.000
48.13078 109.000
48.17068 117.000
48.21058 133.000
48.25048 146.000
48.29037 132.000
48.33027 129.000
48.37017 124.000
48.41007 139.000
48.44997 146.000
48.48987 133.000
48.52977 123.000
48.56967 125.000
48.60957 144.000
48.64946 125.000
48.68936 114.000
48.72926 134.000
48.76916 114.000
48.80906 127.000
48.84896 114.000
48.88886 133.000
48.92876 122.000
48.96866 129.000
49.00856 135.000
49.04845 133.000
49.08835 128.000
49.12825 128.000
49.16815 122.000
49.20805 152.000
49.24795 144.000
49.28785 135.000
49.32775 128.000
49.36765 116.000
49.40755 132.000
49.44744 125.000
49.48734 116.000
49.52724 131.000
49.56714 142.000
49.60704 117.000
49.64694 133.000
49.68684 119.000
49.72674 115.000
49.76664 135.000
49.80653 118.000
49.84643 117.000
49.88633 123.000
49.92623 114.000
49.96613 140.000
50.00603 131.000
50.04593 105.000
50.08583 119.000
50.12573 141.000
50.16563 122.000
50.20552 141.000
50.24542 127.000
50.28532 129.000
50.32522 123.000
50.36512 122.000
50.40502 122.000
50.44492 123.000
50.48482 132.000
50.52472 124.000
50.56462 139.000
50.60451 115.000
50.64441 129.000
50.68431 142.000
50.72421 127.000
50.76411 112.000
50.80401 131.000
50.84391 143.000
50.88381 132.000
50.92371 129.000
50.96360 103.000
51.00350 119.000
51.04340 144.000
51.08330 134.000
51.12320 118.000
51.16310 133.000
51.20300 119.000
51.24290 137.000
51.28280 113.000
51.32270 126.000
51.36259 135.000
51.40249 129.000
51.44239 137.000
51.48229 137.000
51.52219 122.000
51.56209 128.000
51.60199 114.000
51.64189 121.000
51.68179 128.000
51.72169 127.000
51.76158 137.000
51.80148 147.000
51.84138 134.000
51.88128 117.000
51.92118 119.000
51.96108 128.000
52.00098 132.000
52.04088 126.000
52.08078 140.000
52.12067 120.000
52.16057 124.000
52.20047 141.000
52.24037 115.000
52.28027 115.000
52.32017 125.000
52.36007 94.000
52.39997 138.000
52.43987 136.000
52.47977 152.000
52.51966 146.000
52.55956 132.000
52.59946 131.000
52.63936 143.000
52.67926 119.000
52.71916 136.000
52.75906 117.000
52.79896 122.000
52.83886 125.000
52.87876 123.000
52.91865 119.000
52.95855 131.000
52.99845 132.000
53.03835 135.000
53.07825 122.000
53.11815 140.000
53.15805 127.000
53.19795 120.000
53.23785 133.000
53.27774 140.000
53.31764 121.000
53.35754 133.000
53.39744 126.000
53.43734 115.000
53.47724 128.000
53.51714 130.000
53.55704 113.000
53.59694 127.000
53.63684 122.000
53.67673 114.000
53.71663 122.000
53.75653 131.000
53.79643 143.000
53.83633 124.000
53.87623 116.000
53.91613 112.000
53.95603 115.000
53.99593 148.000
54.03582 102.000
54.07572 125.000
54.11562 123.000
54.15552 122.000
54.19542 125.000
54.23532 122.000
54.27522 108.000
54.31512 125.000
54.35502 114.000
54.39492 112.000
54.43481 110.000
54.47471 126.000
54.51461 135.000
54.55451 131.000
54.59441 121.000
54.63431 114.000
54.67421 127.000
54.71411 99.000
54.75401 141.000
54.79391 121.000
54.83380 124.000
54.87370 125.000
54.91360 132.000
54.95350 129.000
54.99340 129.000
55.03330 140.000
55.07320 121.000
55.11310 129.000
55.15300 126.000
55.19289 135.000
55.23279 135.000
55.27269 132.000
55.31259 116.000
55.35249 142.000
55.39239 113.000
55.43229 123.000
55.47219 132.000
55.51209 120.000
55.55199 134.000
55.59188 121.000
55.63178 108.000
55.67168 131.000
55.71158 130.000
55.75148 113.000
55.79138 105.000
55.83128 116.000
55.87118 123.000
55.91108 95.000
55.95098 120.000
55.99087 128.000
56.03077 118.000
56.07067 127.000
56.11057 102.000
56.15047 142.000
56.19037 107.000
56.23027 129.000
56.27017 131.000
56.31007 134.000
56.34996 141.000
56.38986 119.000
56.42976 108.000
56.46966 137.000
56.50956 129.000
56.54946 116.000
56.58936 135.000
56.62926 114.000
56.66916 123.000
56.70906 132.000
56.74895 137.000
56.78885 128.000
56.82875 122.000
56.86865 119.000
56.90855 124.000
56.94845 112.000
56.98835 116.000
57.02825 127.000
57.06815 139.000
57.10805 145.000
57.14794 135.000
57.18784 124.000
57.22774 128.000
57.26764 120.000
57.30754 128.000
57.34744 136.000
57.38734 111.000
57.42724 130.000
57.46714 134.000
57.50703 123.000
57.54693 135.000
57.58683 118.000
57.62673 134.000
57.66663 137.000
57.70653 129.000
57.74643 124.000
57.78633 128.000
57.82623 128.000
57.86613 118.000
57.90602 104.000
57.94592 113.000
57.98582 143.000
58.02572 144.000
58.06562 123.000
58.10552 122.000
58.14542 128.000
58.18532 128.000
58.22522 126.000
58.26511 128.000
58.30501 147.000
58.34491 129.000
58.38481 112.000
58.42471 124.000
58.46461 123.000
58.50451 139.000
58.54441 124.000
58.58431 114.000
58.62421 107.000
58.66410 127.000
58.70400 118.000
58.74390 103.000
58.78380 122.000
58.82370 118.000
58.86360 120.000
58.90350 138.000
58.94340 129.000
58.98330 110.000
59.02320 128.000
59.06309 106.000
59.10299 119.000
59.14289 129.000
59.18279 126.000
59.22269 110.000
59.26259 128.000
59.30249 136.000
59.34239 121.000
59.38229 130.000
59.42218 113.000
59.46208 133.000
59.50198 110.000
59.54188 145.000
59.58178 129.000
59.62168 114.000
59.66158 126.000
59.70148 120.000
59.74138 130.000
59.78128 119.000
59.82117 145.000
59.86107 133.000
59.90097 134.000
59.94087 136.000
59.98077 140.000
60.02067 127.000
60.06057 110.000
60.10047 129.000
60.14037 141.000
60.18027 120.000
60.22016 125.000
60.26006 141.000
60.29996 137.000
60.33986 127.000
60.37976 125.000
60.41966 130.000
60.45956 133.000
60.49946 135.000
60.53936 140.000
60.57925 117.000
60.61915 130.000
60.65905 117.000
60.69895 123.000
60.73885 121.000
60.77875 137.000
60.81865 124.000
60.85855 121.000
60.89845 146.000
60.93835 141.000
60.97824 146.000
61.01814 128.000
61.05804 138.000
61.09794 155.000
61.13784 128.000
61.17774 144.000
61.21764 139.000
61.25754 128.000
61.29744 151.000
61.33734 120.000
61.37723 124.000
61.41713 139.000
61.45703 117.000
61.49693 131.000
61.53683 112.000
61.57673 116.000
61.61663 127.000
61.65653 142.000
61.69643 130.000
61.73632 143.000
61.77622 120.000
61.81612 134.000
61.85602 121.000
61.89592 126.000
61.93582 127.000
61.97572 142.000
62.01562 112.000
62.05552 138.000
62.09542 142.000
62.13531 120.000
62.17521 112.000
62.21511 119.000
62.25501 127.000
62.29491 125.000
62.33481 101.000
62.37471 129.000
62.41461 111.000
62.45451 119.000
62.49440 142.000
62.53430 126.000
62.57420 132.000
62.61410 126.000
62.65400 127.000
62.69390 126.000
62.73380 153.000
62.77370 123.000
62.81360 119.000
62.85350 141.000
62.89339 124.000
62.93329 130.000
62.97319 132.000
63.01309 131.000
63.05299 143.000
63.09289 154.000
63.13279 167.000
63.17269 141.000
63.21259 136.000
63.25249 134.000
63.29238 155.000
63.33228 139.000
63.37218 120.000
63.41208 139.000
63.45198 141.000
63.49188 123.000
63.53178 123.000
63.57168 110.000
63.61158 142.000
63.65147 131.000
63.69137 129.000
63.73127 139.000
63.77117 139.000
63.81107 120.000
63.85097 114.000
63.89087 117.000
63.93077 111.000
63.97067 97.000
64.01057 127.000
64.05046 122.000
64.09036 131.000
64.13026 122.000
64.17016 149.000
64.21006 124.000
64.24996 102.000
64.28986 151.000
64.32976 128.000
64.36966 140.000
64.40956 137.000
64.44945 134.000
64.48935 128.000
64.52925 133.000
64.56915 130.000
64.60905 143.000
64.64895 138.000
64.68885 96.000
64.72875 111.000
64.76865 102.000
64.80854 133.000
64.84844 126.000
64.88834 116.000
64.92824 121.000
64.96814 114.000
65.00804 104.000
65.04794 114.000
65.08784 121.000
65.12774 123.000
65.16764 117.000
65.20753 125.000
65.24743 135.000
65.28733 138.000
65.32723 116.000
65.36713 117.000
65.40703 124.000
65.44693 134.000
65.48683 143.000
65.52673 129.000
65.56663 124.000
65.60652 135.000
65.64642 129.000
65.68632 137.000
65.72622 120.000
65.76612 133.000
65.80602 138.000
65.84592 135.000
65.88582 116.000
65.92572 121.000
65.96561 147.000
66.00551 120.000
66.04541 136.000
66.08531 148.000
66.12521 124.000
66.16511 128.000
66.20501 139.000
66.24491 98.000
66.28481 114.000
66.32471 114.000
66.36460 132.000
66.40450 138.000
66.44440 107.000
66.48430 140.000
66.52420 110.000
66.56410 149.000
66.60400 122.000
66.64390 131.000
66.68380 98.000
66.72370 113.000
66.76359 119.000
66.80349 126.000
66.84339 117.000
66.88329 107.000
66.92319 112.000
66.96309 135.000
67.00299 117.000
67.04289 139.000
67.08279 117.000
67.12268 119.000
67.16258 134.000
67.20248 122.000
67.24238 106.000
67.28228 119.000
67.32218 117.000
67.36208 135.000
67.40198 115.000
67.44188 116.000
67.48178 142.000
67.52167 120.000
67.56157 110.000
67.60147 127.000
67.64137 117.000
67.68127 123.000
67.72117 114.000
67.76107 120.000
67.80097 113.000
67.84087 128.000
67.88076 117.000
67.92066 108.000
67.96056 87.000
68.00046 127.000
68.04036 125.000
68.08026 132.000
68.12016 120.000
68.16006 125.000
68.19996 113.000
68.23986 118.000
68.27975 132.000
68.31965 147.000
68.35955 127.000
68.39945 131.000
68.43935 120.000
68.47925 149.000
68.51915 107.000
68.55905 124.000
68.59895 143.000
68.63885 115.000
68.67874 105.000
68.71864 115.000
68.75854 101.000
68.79844 142.000
68.83834 127.000
68.87824 137.000
68.91814 132.000
68.95804 120.000
68.99794 117.000
69.03783 119.000
69.07773 123.000
69.11763 119.000
69.15753 109.000
69.19743 103.000
69.23733 116.000
69.27723 133.000
69.31713 110.000
69.35703 112.000
69.39693 143.000
69.43682 132.000
69.47672 125.000
69.51662 137.000
69.55652 137.000
69.59642 106.000
69.63632 113.000
69.67622 115.000
69.71612 151.000
69.75602 108.000
69.79592 138.000
69.83581 130.000
69.87571 126.000
69.91561 114.000
69.95551 131.000
69.99541 131.000
70.03531 95.000
70.07521 133.000
70.11511 113.000
70.15501 120.000
70.19490 117.000
70.23480 129.000
70.27470 124.000
70.31460 104.000
70.35450 126.000
70.39440 124.000
70.43430 141.000
70.47420 119.000
70.51410 121.000
70.55400 111.000
70.59389 114.000
70.63379 124.000
70.67369 104.000
70.71359 137.000
70.75349 122.000
70.79339 129.000
70.83329 118.000
70.87319 133.000
70.91309 118.000
70.95299 121.000
70.99288 129.000
71.03278 132.000
71.07268 124.000
71.11258 133.000
71.15248 106.000
71.19238 105.000
71.23228 109.000
71.27218 126.000
71.31208 147.000
71.35197 118.000
71.39187 120.000
71.43177 122.000
71.47167 119.000
71.51157 127.000
71.55147 110.000
71.59137 119.000
71.63127 124.000
71.67117 101.000
71.71107 113.000
71.75096 119.000
71.79086 119.000
71.83076 133.000
71.87066 123.000
71.91056 103.000
71.95046 124.000
71.99036 111.000
72.03026 132.000
72.07016 133.000
72.11005 126.000
72.14995 130.000
72.18985 136.000
72.22975 101.000
72.26965 123.000
72.30955 135.000
72.34945 126.000
72.38935 128.000
72.42925 123.000
72.46915 110.000
72.50904 124.000
72.54894 115.000
72.58884 139.000
72.62874 133.000
72.66864 132.000
72.70854 99.000
72.74844 125.000
72.78834 135.000
72.82824 134.000
72.86814 105.000
72.90803 130.000
72.94793 124.000
72.98783 113.000
73.02773 121.000
73.06763 121.000
73.10753 127.000
73.14743 135.000
73.18733 112.000
73.22723 110.000
73.26712 103.000
73.30702 114.000
73.34692 120.000
73.38682 124.000
73.42672 103.000
73.46662 110.000
73.50652 117.000
73.54642 121.000
73.58632 128.000
73.62622 122.000
73.66611 116.000
73.70601 101.000
73.74591 115.000
73.78581 133.000
73.82571 110.000
73.86561 139.000
73.90551 105.000
73.94541 100.000
73.98531 122.000
74.02521 129.000
74.06510 115.000
74.10500 115.000
74.14490 128.000
74.18480 99.000
74.22470 139.000
74.26460 121.000
74.30450 125.000
74.34440 113.000
74.38430 109.000
74.42419 131.000
74.46409 117.000
74.50399 120.000
74.54389 120.000
74.58379 116.000
74.62369 120.000
74.66359 128.000
74.70349 135.000
74.74339 123.000
74.78329 103.000
74.82318 124.000
74.86308 143.000
74.90298 125.000
74.94288 134.000
74.98278 127.000
75.02268 126.000
75.06258 112.000
75.10248 151.000
75.14238 100.000
75.18228 117.000
75.22217 121.000
75.26207 100.000
75.30197 138.000
75.34187 113.000
75.38177 117.000
75.42167 107.000
75.46157 125.000
75.50147 115.000
75.54137 137.000
75.58126 125.000
75.62116 121.000
75.66106 142.000
75.70096 127.000
75.74086 125.000
75.78076 133.000
75.82066 121.000
75.86056 131.000
75.90046 126.000
75.94036 116.000
75.98025 117.000
76.02015 106.000
76.06005 127.000
76.09995 138.000
76.13985 122.000
76.17975 117.000
76.21965 103.000
76.25955 125.000
76.29945 131.000
76.33934 136.000
76.37924 111.000
76.41914 107.000
76.45904 108.000
76.49894 137.000
76.53884 116.000
76.57874 125.000
76.61864 113.000
76.65854 124.000
76.69844 131.000
76.73833 117.000
76.77823 114.000
76.81813 107.000
76.85803 118.000
76.89793 117.000
76.93783 125.000
76.97773 112.000
77.01763 97.000
77.05753 103.000
77.09743 123.000
77.13732 113.000
77.17722 134.000
77.21712 105.000
77.25702 105.000
77.29692 109.000
77.33682 113.000
77.37672 122.000
77.41662 131.000
77.45652 130.000
77.49641 108.000
77.53631 137.000
77.57621 106.000
77.61611 110.000
77.65601 115.000
77.69591 119.000
77.73581 142.000
77.77571 118.000
77.81561 116.000
77.85551 109.000
77.89540 112.000
77.93530 125.000
77.97520 126.000
78.01510 122.000
78.05500 120.000
78.09490 114.000
78.13480 126.000
78.17470 126.000
78.21460 126.000
78.25450 116.000
78.29439 128.000
78.33429 115.000
78.37419 141.000
78.41409 119.000
78.45399 115.000
78.49389 92.000
78.53379 139.000
78.57369 122.000
78.61359 106.000
78.65348 120.000
78.69338 131.000
78.73328 120.000
78.77318 121.000
78.81308 121.000
78.85298 130.000
78.89288 98.000
78.93278 129.000
78.97268 120.000
79.01258 104.000
79.05247 129.000
79.09237 103.000
79.13227 120.000
79.17217 110.000
79.21207 122.000
79.25197 124.000
79.29187 114.000
79.33177 100.000
79.37167 122.000
79.41157 123.000
79.45146 130.000
79.49136 108.000
79.53126 121.000
79.57116 110.000
79.61106 124.000
79.65096 132.000
79.69086 141.000
79.73076 129.000
79.77066 112.000
79.81055 112.000
79.85045 99.000
79.89035 121.000
79.93025 99.000
79.97015 119.000
80.01005 120.000
80.04995 116.000
80.08985 120.000
80.12975 125.000
80.16965 132.000
80.20954 107.000
80.24944 114.000
80.28934 117.000
