5.00000 90.000
5.03990 76.000
5.07980 79.000
5.11970 77.000
5.15960 83.000
5.19949 86.000
5.23939 78.000
5.27929 72.000
5.31919 86.000
5.35909 74.000
5.39899 86.000
5.43889 79.000
5.47879 85.000
5.51869 78.000
5.55859 81.000
5.59848 91.000
5.63838 81.000
5.67828 110.000
5.71818 83.000
5.75808 107.000
5.79798 113.000
5.83788 93.000
5.87778 105.000
5.91768 99.000
5.95758 85.000
5.99747 74.000
6.03737 98.000
6.07727 100.000
6.11717 88.000
6.15707 95.000
6.19697 109.000
6.23687 100.000
6.27677 109.000
6.31667 114.000
6.35656 115.000
6.39646 95.000
6.43636 92.000
6.47626 108.000
6.51616 107.000
6.55606 93.000
6.59596 98.000
6.63586 121.000
6.67576 115.000
6.71566 109.000
6.75555 92.000
6.79545 90.000
6.83535 116.000
6.87525 110.000
6.91515 88.000
6.95505 107.000
6.99495 108.000
7.03485 123.000
7.07475 102.000
7.11465 105.000
7.15454 100.000
7.19444 104.000
7.23434 101.000
7.27424 121.000
7.31414 114.000
7.35404 121.000
7.39394 108.000
7.43384 104.000
7.47374 115.000
7.51363 103.000
7.55353 114.000
7.59343 105.000
7.63333 105.000
7.67323 97.000
7.71313 118.000
7.75303 106.000
7.79293 146.000
7.83283 105.000
7.87273 132.000
7.91262 118.000
7.95252 100.000
7.99242 84.000
8.03232 109.000
8.07222 117.000
8.11212 126.000
8.15202 133.000
8.19192 115.000
8.23182 129.000
8.27171 101.000
8.31161 107.000
8.35151 111.000
8.39141 117.000
8.43131 110.000
8.47121 107.000
8.51111 132.000
8.55101 103.000
8.59091 116.000
8.63081 131.000
8.67070 123.000
8.71060 113.000
8.75050 114.000
8.79040 105.000
8.83030 115.000
8.87020 117.000
8.91010 119.000
8.95000 115.000
8.98990 106.000
9.02980 103.000
9.06969 112.000
9.10959 119.000
9.14949 115.000
9.18939 134.000
9.22929 113.000
9.26919 116.000
9.30909 107.000
9.34899 105.000
9.38889 115.000
9.42878 113.000
9.46868 123.000
9.50858 137.000
9.54848 120.000
9.58838 105.000
9.62828 104.000
9.66818 103.000
9.70808 109.000
9.74798 123.000
9.78788 133.000
9.82777 114.000
9.86767 137.000
9.90757 126.000
9.94747 129.000
9.98737 111.000
10.02727 133.000
10.06717 132.000
10.10707 126.000
10.14697 111.000
10.18687 109.000
10.22676 128.000
10.26666 126.000
10.30656 110.000
10.34646 106.000
10.38636 144.000
10.42626 147.000
10.46616 115.000
10.50606 123.000
10.54596 114.000
10.58585 146.000
10.62575 111.000
10.66565 143.000
10.70555 130.000
10.74545 121.000
10.78535 113.000
10.82525 129.000
10.86515 139.000
10.90505 115.000
10.94495 137.000
10.98484 110.000
11.02474 115.000
11.06464 126.000
11.10454 123.000
11.14444 134.000
11.18434 105.000
11.22424 131.000
11.26414 119.000
11.30404 125.000
11.34394 128.000
11.38383 121.000
11.42373 142.000
11.46363 119.000
11.50353 127.000
11.54343 128.000
11.58333 118.000
11.62323 150.000
11.66313 133.000
11.70303 126.000
11.74292 114.000
11.78282 118.000
11.82272 135.000
11.86262 90.000
11.90252 142.000
11.94242 125.000
11.98232 121.000
12.02222 134.000
12.06212 121.000
12.10202 145.000
12.14191 134.000
12.18181 133.000
12.22171 144.000
12.26161 131.000
12.30151 119.000
12.34141 112.000
12.38131 144.000
12.42121 132.000
12.46111 132.000
12.50100 106.000
12.54090 113.000
12.58080 130.000
12.62070 116.000
12.66060 136.000
12.70050 126.000
12.74040 145.000
12.78030 149.000
12.82020 141.000
12.86010 128.000
12.89999 121.000
12.93989 113.000
12.97979 131.000
13.01969 145.000
13.05959 133.000
13.09949 119.000
13.13939 145.000
13.17929 160.000
13.21919 143.000
13.25909 139.000
13.29898 137.000
13.33888 116.000
13.37878 128.000
13.41868 150.000
13.45858 127.000
13.49848 125.000
13.53838 128.000
13.57828 126.000
13.61818 98.000
13.65807 138.000
13.69797 144.000
13.73787 132.000
13.77777 146.000
13.81767 141.000
13.85757 127.000
13.89747 145.000
13.93737 139.000
13.97727 158.000
14.01717 132.000
14.05706 138.000
14.09696 145.000
14.13686 125.000
14.17676 136.000
14.21666 157.000
14.25656 130.000
14.29646 118.000
14.33636 123.000
14.37626 127.000
14.41616 129.000
14.45605 138.000
14.49595 145.000
14.53585 146.000
14.57575 128.000
14.61565 118.000
14.65555 129.000
14.69545 149.000
14.73535 131.000
14.77525 133.000
14.81514 156.000
14.85504 149.000
14.89494 136.000
14.93484 126.000
14.97474 129.000
15.01464 147.000
15.05454 133.000
15.09444 133.000
15.13434 133.000
15.17424 151.000
15.21413 124.000
15.25403 124.000
15.29393 138.000
15.33383 141.000
15.37373 121.000
15.41363 138.000
15.45353 120.000
15.49343 135.000
15.53333 135.000
15.57323 146.000
15.61312 123.000
15.65302 154.000
15.69292 161.000
15.73282 166.000
15.77272 142.000
15.81262 155.000
15.85252 136.000
15.89242 140.000
15.93232 144.000
15.97221 182.000
16.01211 148.000
16.05201 141.000
16.09191 145.000
16.13181 157.000
16.17171 136.000
16.21161 143.000
16.25151 155.000
16.29141 148.000
16.33131 128.000
16.37120 162.000
16.41110 156.000
16.45100 160.000
16.49090 144.000
16.53080 141.000
16.57070 175.000
16.61060 158.000
16.65050 157.000
16.69040 133.000
16.73029 154.000
16.77019 144.000
16.81009 163.000
16.84999 145.000
16.88989 155.000
16.92979 153.000
16.96969 155.000
17.00959 138.000
17.04949 149.000
17.08939 144.000
17.12928 165.000
17.16918 161.000
17.20908 169.000
17.24898 170.000
17.28888 167.000
17.32878 161.000
17.36868 167.000
17.40858 168.000
17.44848 166.000
17.48838 173.000
17.52827 186.000
17.56817 148.000
17.60807 143.000
17.64797 158.000
17.68787 164.000
17.72777 163.000
17.76767 183.000
17.80757 147.000
17.84747 152.000
17.88736 185.000
17.92726 190.000
17.96716 141.000
18.00706 153.000
18.04696 172.000
18.08686 170.000
18.12676 161.000
18.16666 167.000
18.20656 187.000
18.24646 159.000
18.28635 175.000
18.32625 170.000
18.36615 175.000
18.40605 185.000
18.44595 152.000
18.48585 208.000
18.52575 162.000
18.56565 197.000
18.60555 169.000
18.64545 176.000
18.68534 182.000
18.72524 178.000
18.76514 189.000
18.80504 199.000
18.84494 192.000
18.88484 198.000
18.92474 195.000
18.96464 186.000
19.00454 201.000
19.04443 220.000
19.08433 200.000
19.12423 222.000
19.16413 211.000
19.20403 201.000
19.24393 189.000
19.28383 181.000
19.32373 187.000
19.36363 182.000
19.40353 188.000
19.44342 194.000
19.48332 211.000
19.52322 191.000
19.56312 191.000
19.60302 171.000
19.64292 190.000
19.68282 194.000
19.72272 201.000
19.76262 209.000
19.80252 210.000
19.84241 204.000
19.88231 193.000
19.92221 211.000
19.96211 203.000
20.00201 195.000
20.04191 193.000
20.08181 228.000
20.12171 227.000
20.16161 228.000
20.20150 224.000
20.24140 208.000
20.28130 231.000
20.32120 234.000
20.36110 223.000
20.40100 227.000
20.44090 228.000
20.48080 231.000
20.52070 239.000
20.56060 223.000
20.60049 218.000
20.64039 233.000
20.68029 222.000
20.72019 241.000
20.76009 210.000
20.79999 248.000
20.83989 246.000
20.87979 242.000
20.91969 220.000
20.95959 246.000
20.99948 211.000
21.03938 218.000
21.07928 230.000
21.11918 218.000
21.15908 191.000
21.19898 233.000
21.23888 210.000
21.27878 234.000
21.31868 241.000
21.35857 229.000
21.39847 238.000
21.43837 225.000
21.47827 232.000
21.51817 228.000
21.55807 219.000
21.59797 211.000
21.63787 269.000
21.67777 250.000
21.71767 265.000
21.75756 235.000
21.79746 223.000
21.83736 254.000
21.87726 264.000
21.91716 242.000
21.95706 211.000
21.99696 220.000
22.03686 248.000
22.07676 255.000
22.11665 213.000
22.15655 215.000
22.19645 229.000
22.23635 203.000
22.27625 195.000
22.31615 212.000
22.35605 241.000
22.39595 207.000
22.43585 206.000
22.47575 229.000
22.51564 213.000
22.55554 220.000
22.59544 182.000
22.63534 231.000
22.67524 232.000
22.71514 217.000
22.75504 202.000
22.79494 222.000
22.83484 210.000
22.87474 259.000
22.91463 227.000
22.95453 212.000
22.99443 223.000
23.03433 216.000
23.07423 187.000
23.11413 235.000
23.15403 214.000
23.19393 225.000
23.23383 215.000
23.27372 222.000
23.31362 198.000
23.35352 208.000
23.39342 187.000
23.43332 198.000
23.47322 203.000
23.51312 216.000
23.55302 181.000
23.59292 222.000
23.63282 213.000
23.67271 222.000
23.71261 206.000
23.75251 201.000
23.79241 218.000
23.83231 175.000
23.87221 203.000
23.91211 212.000
23.95201 217.000
23.99191 200.000
24.03181 219.000
24.07170 203.000
24.11160 202.000
24.15150 195.000
24.19140 212.000
24.23130 200.000
24.27120 200.000
24.31110 198.000
24.35100 190.000
24.39090 189.000
24.43079 192.000
24.47069 199.000
24.51059 194.000
24.55049 193.000
24.59039 194.000
24.63029 183.000
24.67019 175.000
24.71009 193.000
24.74999 178.000
24.78989 172.000
24.82978 175.000
24.86968 156.000
24.90958 160.000
24.94948 162.000
24.98938 168.000
25.02928 196.000
25.06918 191.000
25.10908 171.000
25.14898 160.000
25.18888 152.000
25.22877 179.000
25.26867 183.000
25.30857 179.000
25.34847 200.000
25.38837 190.000
25.42827 166.000
25.46817 183.000
25.50807 181.000
25.54797 168.000
25.58786 150.000
25.62776 162.000
25.66766 168.000
25.70756 156.000
25.74746 175.000
25.78736 160.000
25.82726 182.000
25.86716 166.000
25.90706 158.000
25.94696 161.000
25.98685 160.000
26.02675 150.000
26.06665 181.000
26.10655 189.000
26.14645 171.000
26.18635 156.000
26.22625 156.000
26.26615 178.000
26.30605 184.000
26.34594 165.000
26.38584 172.000
26.42574 160.000
26.46564 164.000
26.50554 157.000
26.54544 160.000
26.58534 157.000
26.62524 153.000
26.66514 163.000
26.70504 152.000
26.74493 149.000
26.78483 171.000
26.82473 162.000
26.86463 148.000
26.90453 143.000
26.94443 145.000
26.98433 142.000
27.02423 171.000
27.06413 153.000
27.10403 156.000
27.14392 153.000
27.18382 165.000
27.22372 178.000
27.26362 146.000
27.30352 149.000
27.34342 171.000
27.38332 180.000
27.42322 160.000
27.46312 164.000
27.50301 151.000
27.54291 166.000
27.58281 162.000
27.62271 143.000
27.66261 148.000
27.70251 152.000
27.74241 184.000
27.78231 162.000
27.82221 169.000
27.86211 155.000
27.90200 159.000
27.94190 154.000
27.98180 143.000
28.02170 149.000
28.06160 145.000
28.10150 154.000
28.14140 154.000
28.18130 151.000
28.22120 158.000
28.26110 157.000
28.30099 151.000
28.34089 150.000
28.38079 154.000
28.42069 142.000
28.46059 153.000
28.50049 159.000
28.54039 135.000
28.58029 137.000
28.62019 134.000
28.66008 137.000
28.69998 159.000
28.73988 148.000
28.77978 129.000
28.81968 154.000
28.85958 148.000
28.89948 141.000
28.93938 143.000
28.97928 129.000
29.01918 130.000
29.05907 140.000
29.09897 150.000
29.13887 143.000
29.17877 135.000
29.21867 137.000
29.25857 178.000
29.29847 146.000
29.33837 136.000
29.37827 142.000
29.41817 171.000
29.45806 142.000
29.49796 141.000
29.53786 155.000
29.57776 134.000
29.61766 123.000
29.65756 122.000
29.69746 162.000
29.73736 143.000
29.77726 154.000
29.81715 147.000
29.85705 154.000
29.89695 156.000
29.93685 154.000
29.97675 138.000
30.01665 131.000
30.05655 125.000
30.09645 139.000
30.13635 147.000
30.17625 134.000
30.21614 140.000
30.25604 170.000
30.29594 150.000
30.33584 132.000
30.37574 151.000
30.41564 132.000
30.45554 143.000
30.49544 136.000
30.53534 125.000
30.57523 145.000
30.61513 170.000
30.65503 144.000
30.69493 121.000
30.73483 130.000
30.77473 122.000
30.81463 137.000
30.85453 165.000
30.89443 139.000
30.93433 144.000
30.97422 148.000
31.01412 134.000
31.05402 152.000
31.09392 129.000
31.13382 149.000
31.17372 145.000
31.21362 134.000
31.25352 141.000
31.29342 154.000
31.33332 138.000
31.37321 108.000
31.41311 121.000
31.45301 154.000
31.49291 165.000
31.53281 124.000
31.57271 148.000
31.61261 114.000
31.65251 144.000
31.69241 127.000
31.73230 146.000
31.77220 140.000
31.81210 117.000
31.85200 147.000
31.89190 114.000
31.93180 132.000
31.97170 155.000
32.01160 125.000
32.05150 150.000
32.09140 145.000
32.13129 124.000
32.17119 119.000
32.21109 134.000
32.25099 149.000
32.29089 136.000
32.33079 130.000
32.37069 152.000
32.41059 132.000
32.45049 138.000
32.49039 152.000
32.53028 150.000
32.57018 123.000
32.61008 160.000
32.64998 165.000
32.68988 141.000
32.72978 190.000
32.76968 169.000
32.80958 167.000
32.84948 174.000
32.88937 200.000
32.92927 191.000
32.96917 150.000
33.00907 176.000
33.04897 161.000
33.08887 186.000
33.12877 156.000
33.16867 150.000
33.20857 141.000
33.24847 159.000
33.28836 166.000
33.32826 161.000
33.36816 128.000
33.40806 119.000
33.44796 169.000
33.48786 148.000
33.52776 139.000
33.56766 125.000
33.60756 132.000
33.64746 117.000
33.68735 138.000
33.72725 126.000
33.76715 127.000
33.80705 148.000
33.84695 152.000
33.88685 158.000
33.92675 151.000
33.96665 116.000
34.00655 124.000
34.04644 122.000
34.08634 114.000
34.12624 132.000
34.16614 170.000
34.20604 129.000
34.24594 132.000
34.28584 124.000
34.32574 119.000
34.36564 124.000
34.40554 128.000
34.44543 149.000
34.48533 110.000
34.52523 148.000
34.56513 128.000
34.60503 132.000
34.64493 140.000
34.68483 143.000
34.72473 141.000
34.76463 113.000
34.80453 137.000
34.84442 145.000
34.88432 134.000
34.92422 146.000
34.96412 133.000
35.00402 126.000
35.04392 141.000
35.08382 159.000
35.12372 143.000
35.16362 145.000
35.20351 150.000
35.24341 142.000
35.28331 147.000
35.32321 133.000
35.36311 134.000
35.40301 155.000
35.44291 138.000
35.48281 159.000
35.52271 132.000
35.56261 150.000
35.60250 167.000
35.64240 152.000
35.68230 145.000
35.72220 121.000
35.76210 121.000
35.80200 143.000
35.84190 134.000
35.88180 122.000
35.92170 128.000
35.96159 147.000
36.00149 153.000
36.04139 149.000
36.08129 123.000
36.12119 126.000
36.16109 126.000
36.20099 137.000
36.24089 138.000
36.28079 134.000
36.32069 136.000
36.36058 133.000
36.40048 136.000
36.44038 143.000
36.48028 144.000
36.52018 139.000
36.56008 158.000
36.59998 156.000
36.63988 122.000
36.67978 121.000
36.71968 124.000
36.75957 143.000
36.79947 131.000
36.83937 121.000
36.87927 126.000
36.91917 127.000
36.95907 122.000
36.99897 125.000
37.03887 166.000
37.07877 138.000
37.11866 126.000
37.15856 133.000
37.19846 126.000
37.23836 133.000
37.27826 139.000
37.31816 126.000
37.35806 110.000
37.39796 118.000
37.43786 135.000
37.47776 110.000
37.51765 127.000
37.55755 127.000
37.59745 134.000
37.63735 147.000
37.67725 132.000
37.71715 152.000
37.75705 133.000
37.79695 113.000
37.83685 138.000
37.87675 132.000
37.91664 123.000
37.95654 127.000
37.99644 131.000
38.03634 126.000
38.07624 143.000
38.11614 153.000
38.15604 133.000
38.19594 113.000
38.23584 113.000
38.27573 127.000
38.31563 118.000
38.35553 138.000
38.39543 123.000
38.43533 126.000
38.47523 134.000
38.51513 102.000
38.55503 133.000
38.59493 120.000
38.63483 128.000
38.67472 112.000
38.71462 123.000
38.75452 124.000
38.79442 124.000
38.83432 129.000
38.87422 125.000
38.91412 119.000
38.95402 120.000
38.99392 110.000
39.03382 111.000
39.07371 122.000
39.11361 116.000
39.15351 100.000
39.19341 100.000
39.23331 126.000
39.27321 110.000
39.31311 121.000
39.35301 104.000
39.39291 112.000
39.43280 132.000
39.47270 124.000
39.51260 115.000
39.55250 126.000
39.59240 131.000
39.63230 125.000
39.67220 103.000
39.71210 117.000
39.75200 124.000
39.79190 110.000
39.83179 135.000
39.87169 102.000
39.91159 111.000
39.95149 109.000
39.99139 127.000
40.03129 105.000
40.07119 110.000
40.11109 126.000
40.15099 128.000
40.19088 132.000
40.23078 140.000
40.27068 121.000
40.31058 121.000
40.35048 143.000
40.39038 114.000
40.43028 121.000
40.47018 110.000
40.51008 100.000
40.54998 108.000
40.58987 125.000
40.62977 122.000
40.66967 114.000
40.70957 121.000
40.74947 147.000
40.78937 122.000
40.82927 126.000
40.86917 120.000
40.90907 118.000
40.94897 121.000
40.98886 136.000
41.02876 122.000
41.06866 127.000
41.10856 93.000
41.14846 134.000
41.18836 113.000
41.22826 141.000
41.26816 123.000
41.30806 110.000
41.34795 127.000
41.38785 124.000
41.42775 110.000
41.46765 132.000
41.50755 124.000
41.54745 139.000
41.58735 119.000
41.62725 143.000
41.66715 130.000
41.70705 115.000
41.74694 117.000
41.78684 114.000
41.82674 100.000
41.86664 106.000
41.90654 101.000
41.94644 123.000
41.98634 131.000
42.02624 117.000
42.06614 95.000
42.10604 97.000
42.14593 123.000
42.18583 121.000
42.22573 129.000
42.26563 116.000
42.30553 106.000
42.34543 130.000
42.38533 120.000
42.42523 120.000
42.46513 115.000
42.50502 126.000
42.54492 107.000
42.58482 112.000
42.62472 117.000
42.66462 118.000
42.70452 142.000
42.74442 123.000
42.78432 129.000
42.82422 108.000
42.86412 115.000
42.90401 105.000
42.94391 110.000
42.98381 107.000
43.02371 108.000
43.06361 106.000
43.10351 123.000
43.14341 110.000
43.18331 126.000
43.22321 125.000
43.26311 111.000
43.30300 129.000
43.34290 111.000
43.38280 97.000
43.42270 106.000
43.46260 117.000
43.50250 135.000
43.54240 121.000
43.58230 122.000
43.62220 113.000
43.66209 121.000
43.70199 110.000
43.74189 154.000
43.78179 107.000
43.82169 129.000
43.86159 134.000
43.90149 116.000
43.94139 94.000
43.98129 138.000
44.02119 103.000
44.06108 115.000
44.10098 102.000
44.14088 113.000
44.18078 111.000
44.22068 133.000
44.26058 125.000
44.30048 119.000
44.34038 125.000
44.38028 118.000
44.42017 121.000
44.46007 103.000
44.49997 115.000
44.53987 114.000
44.57977 124.000
44.61967 116.000
44.65957 119.000
44.69947 108.000
44.73937 112.000
44.77927 115.000
44.81916 126.000
44.85906 122.000
44.89896 109.000
44.93886 101.000
44.97876 139.000
45.01866 119.000
45.05856 112.000
45.09846 122.000
45.13836 112.000
45.17826 131.000
45.21815 126.000
45.25805 118.000
45.29795 110.000
45.33785 107.000
45.37775 121.000
45.41765 136.000
45.45755 121.000
45.49745 114.000
45.53735 103.000
45.57724 99.000
45.61714 130.000
45.65704 100.000
45.69694 118.000
45.73684 109.000
45.77674 119.000
45.81664 137.000
45.85654 107.000
45.89644 101.000
45.93634 124.000
45.97623 103.000
46.01613 125.000
46.05603 117.000
46.09593 122.000
46.13583 124.000
46.17573 134.000
46.21563 99.000
46.25553 123.000
46.29543 118.000
46.33533 148.000
46.37522 126.000
46.41512 121.000
46.45502 113.000
46.49492 100.000
46.53482 123.000
46.57472 136.000
46.61462 127.000
46.65452 143.000
46.69442 122.000
46.73431 101.000
46.77421 124.000
46.81411 98.000
46.85401 125.000
46.89391 93.000
46.93381 125.000
46.97371 112.000
47.01361 109.000
47.05351 121.000
47.09341 102.000
47.13330 97.000
47.17320 116.000
47.21310 118.000
47.25300 117.000
47.29290 121.000
47.33280 122.000
47.37270 112.000
47.41260 106.000
47.45250 127.000
47.49240 109.000
47.53229 122.000
47.57219 124.000
47.61209 114.000
47.65199 123.000
47.69189 112.000
47.73179 116.000
47.77169 129.000
47.81159 109.000
47.85149 111.000
47.89138 106.000
47.93128 107.000
47.97118 95.000
48.01108 114.000
48.05098 115.000
48.09088 116.000
48.13078 110.000
48.17068 100.000
48.21058 132.000
48.25048 109.000
48.29037 111.000
48.33027 102.000
48.37017 127.000
48.41007 89.000
48.44997 136.000
48.48987 119.000
48.52977 127.000
48.56967 109.000
48.60957 119.000
48.64946 123.000
48.68936 119.000
48.72926 113.000
48.76916 102.000
48.80906 109.000
48.84896 118.000
48.88886 110.000
48.92876 114.000
48.96866 108.000
49.00856 102.000
49.04845 111.000
49.08835 115.000
49.12825 119.000
49.16815 133.000
49.20805 126.000
49.24795 130.000
49.28785 116.000
49.32775 103.000
49.36765 126.000
49.40755 99.000
49.44744 115.000
49.48734 127.000
49.52724 115.000
49.56714 113.000
49.60704 117.000
49.64694 113.000
49.68684 130.000
49.72674 98.000
49.76664 101.000
49.80653 101.000
49.84643 120.000
49.88633 101.000
49.92623 130.000
49.96613 103.000
50.00603 95.000
50.04593 120.000
50.08583 134.000
50.12573 119.000
50.16563 103.000
50.20552 112.000
50.24542 111.000
50.28532 116.000
50.32522 120.000
50.36512 106.000
50.40502 108.000
50.44492 110.000
50.48482 116.000
50.52472 112.000
50.56462 116.000
50.60451 103.000
50.64441 99.000
50.68431 99.000
50.72421 124.000
50.76411 124.000
50.80401 118.000
50.84391 108.000
50.88381 100.000
50.92371 114.000
50.96360 102.000
51.00350 94.000
51.04340 133.000
51.08330 114.000
51.12320 133.000
51.16310 91.000
51.20300 115.000
51.24290 109.000
51.28280 113.000
51.32270 116.000
51.36259 125.000
51.40249 125.000
51.44239 115.000
51.48229 107.000
51.52219 117.000
51.56209 125.000
51.60199 106.000
51.64189 119.000
51.68179 133.000
51.72169 119.000
51.76158 119.000
51.80148 134.000
51.84138 105.000
51.88128 105.000
51.92118 109.000
51.96108 117.000
52.00098 114.000
52.04088 110.000
52.08078 107.000
52.12067 109.000
52.16057 107.000
52.20047 111.000
52.24037 104.000
52.28027 143.000
52.32017 113.000
52.36007 116.000
52.39997 99.000
52.43987 109.000
52.47977 107.000
52.51966 107.000
52.55956 104.000
52.59946 108.000
52.63936 111.000
52.67926 117.000
52.71916 117.000
52.75906 131.000
52.79896 114.000
52.83886 122.000
52.87876 127.000
52.91865 139.000
52.95855 98.000
52.99845 98.000
53.03835 124.000
53.07825 116.000
53.11815 145.000
53.15805 134.000
53.19795 121.000
53.23785 122.000
53.27774 114.000
53.31764 101.000
53.35754 103.000
53.39744 94.000
53.43734 105.000
53.47724 123.000
53.51714 120.000
53.55704 99.000
53.59694 118.000
53.63684 102.000
53.67673 116.000
53.71663 122.000
53.75653 109.000
53.79643 115.000
53.83633 115.000
53.87623 128.000
53.91613 107.000
53.95603 119.000
53.99593 126.000
54.03582 111.000
54.07572 126.000
54.11562 115.000
54.15552 101.000
54.19542 135.000
54.23532 112.000
54.27522 110.000
54.31512 116.000
54.35502 103.000
54.39492 121.000
54.43481 103.000
54.47471 117.000
54.51461 109.000
54.55451 103.000
54.59441 106.000
54.63431 124.000
54.67421 108.000
54.71411 113.000
54.75401 124.000
54.79391 111.000
54.83380 108.000
54.87370 115.000
54.91360 103.000
54.95350 127.000
54.99340 108.000
55.03330 113.000
55.07320 103.000
55.11310 94.000
55.15300 109.000
55.19289 92.000
55.23279 93.000
55.27269 132.000
55.31259 122.000
55.35249 92.000
55.39239 103.000
55.43229 107.000
55.47219 121.000
55.51209 118.000
55.55199 105.000
55.59188 108.000
55.63178 92.000
55.67168 115.000
55.71158 102.000
55.75148 98.000
55.79138 119.000
55.83128 108.000
55.87118 104.000
55.91108 100.000
55.95098 111.000
55.99087 118.000
56.03077 108.000
56.07067 119.000
56.11057 123.000
56.15047 119.000
56.19037 92.000
56.23027 119.000
56.27017 113.000
56.31007 126.000
56.34996 112.000
56.38986 115.000
56.42976 106.000
56.46966 110.000
56.50956 115.000
56.54946 99.000
56.58936 115.000
56.62926 97.000
56.66916 117.000
56.70906 138.000
56.74895 106.000
56.78885 108.000
56.82875 121.000
56.86865 111.000
56.90855 111.000
56.94845 94.000
56.98835 110.000
57.02825 115.000
57.06815 115.000
57.10805 118.000
57.14794 107.000
57.18784 106.000
57.22774 105.000
57.26764 117.000
57.30754 130.000
57.34744 101.000
57.38734 124.000
57.42724 110.000
57.46714 116.000
57.50703 113.000
57.54693 124.000
57.58683 104.000
57.62673 110.000
57.66663 113.000
57.70653 96.000
57.74643 111.000
57.78633 101.000
57.82623 113.000
57.86613 112.000
57.90602 126.000
57.94592 109.000
57.98582 94.000
58.02572 120.000
58.06562 120.000
58.10552 104.000
58.14542 93.000
58.18532 129.000
58.22522 131.000
58.26511 107.000
58.30501 117.000
58.34491 123.000
58.38481 111.000
58.42471 112.000
58.46461 121.000
58.50451 124.000
58.54441 116.000
58.58431 112.000
58.62421 124.000
58.66410 101.000
58.70400 111.000
58.74390 93.000
58.78380 96.000
58.82370 124.000
58.86360 124.000
58.90350 120.000
58.94340 117.000
58.98330 115.000
59.02320 128.000
59.06309 100.000
59.10299 134.000
59.14289 111.000
59.18279 122.000
59.22269 109.000
59.26259 89.000
59.30249 104.000
59.34239 134.000
59.38229 108.000
59.42218 105.000
59.46208 103.000
59.50198 111.000
59.54188 111.000
59.58178 110.000
59.62168 111.000
59.66158 109.000
59.70148 131.000
59.74138 114.000
59.78128 135.000
59.82117 109.000
59.86107 113.000
59.90097 97.000
59.94087 121.000
59.98077 105.000
60.02067 107.000
60.06057 118.000
60.10047 113.000
60.14037 113.000
60.18027 109.000
60.22016 115.000
60.26006 108.000
60.29996 118.000
60.33986 134.000
60.37976 120.000
60.41966 117.000
60.45956 94.000
60.49946 119.000
60.53936 117.000
60.57925 136.000
60.61915 114.000
60.65905 123.000
60.69895 114.000
60.73885 121.000
60.77875 124.000
60.81865 117.000
60.85855 113.000
60.89845 117.000
60.93835 133.000
60.97824 134.000
61.01814 123.000
61.05804 112.000
61.09794 105.000
61.13784 98.000
61.17774 122.000
61.21764 121.000
61.25754 113.000
61.29744 140.000
61.33734 120.000
61.37723 104.000
61.41713 108.000
61.45703 116.000
61.49693 146.000
61.53683 107.000
61.57673 122.000
61.61663 126.000
61.65653 108.000
61.69643 111.000
61.73632 107.000
61.77622 123.000
61.81612 129.000
61.85602 127.000
61.89592 125.000
61.93582 108.000
61.97572 111.000
62.01562 114.000
62.05552 107.000
62.09542 117.000
62.13531 112.000
62.17521 116.000
62.21511 105.000
62.25501 113.000
62.29491 130.000
62.33481 115.000
62.37471 137.000
62.41461 112.000
62.45451 110.000
62.49440 115.000
62.53430 107.000
62.57420 102.000
62.61410 131.000
62.65400 108.000
62.69390 121.000
62.73380 104.000
62.77370 129.000
62.81360 122.000
62.85350 112.000
62.89339 116.000
62.93329 102.000
62.97319 128.000
63.01309 115.000
63.05299 112.000
63.09289 134.000
63.13279 126.000
63.17269 123.000
63.21259 131.000
63.25249 122.000
63.29238 131.000
63.33228 114.000
63.37218 100.000
63.41208 123.000
63.45198 115.000
63.49188 124.000
63.53178 113.000
63.57168 105.000
63.61158 111.000
63.65147 116.000
63.69137 125.000
63.73127 100.000
63.77117 100.000
63.81107 119.000
63.85097 120.000
63.89087 116.000
63.93077 131.000
63.97067 136.000
64.01057 123.000
64.05046 137.000
64.09036 108.000
64.13026 106.000
64.17016 124.000
64.21006 98.000
64.24996 131.000
64.28986 119.000
64.32976 128.000
64.36966 114.000
64.40956 124.000
64.44945 127.000
64.48935 89.000
64.52925 94.000
64.56915 110.000
64.60905 129.000
64.64895 111.000
64.68885 111.000
64.72875 107.000
64.76865 102.000
64.80854 115.000
64.84844 127.000
64.88834 97.000
64.92824 107.000
64.96814 123.000
65.00804 127.000
65.04794 108.000
65.08784 116.000
65.12774 113.000
65.16764 95.000
65.20753 116.000
65.24743 110.000
65.28733 117.000
65.32723 133.000
65.36713 106.000
65.40703 109.000
65.44693 115.000
65.48683 111.000
65.52673 113.000
65.56663 116.000
65.60652 118.000
65.64642 125.000
65.68632 105.000
65.72622 140.000
65.76612 126.000
65.80602 114.000
65.84592 103.000
65.88582 119.000
65.92572 105.000
65.96561 106.000
66.00551 137.000
66.04541 101.000
66.08531 107.000
66.12521 105.000
66.16511 94.000
66.20501 116.000
66.24491 108.000
66.28481 121.000
66.32471 86.000
66.36460 118.000
66.40450 105.000
66.44440 111.000
66.48430 110.000
66.52420 109.000
66.56410 132.000
66.60400 104.000
66.64390 106.000
66.68380 112.000
66.72370 96.000
66.76359 114.000
66.80349 104.000
66.84339 125.000
66.88329 97.000
66.92319 120.000
66.96309 105.000
67.00299 118.000
67.04289 114.000
67.08279 130.000
67.12268 113.000
67.16258 94.000
67.20248 92.000
67.24238 140.000
67.28228 105.000
67.32218 116.000
67.36208 108.000
67.40198 116.000
67.44188 113.000
67.48178 121.000
67.52167 98.000
67.56157 120.000
67.60147 125.000
67.64137 112.000
67.68127 101.000
67.72117 90.000
67.76107 101.000
67.80097 92.000
67.84087 108.000
67.88076 95.000
67.92066 106.000
67.96056 93.000
68.00046 139.000
68.04036 119.000
68.08026 116.000
68.12016 109.000
68.16006 113.000
68.19996 99.000
68.23986 105.000
68.27975 96.000
68.31965 103.000
68.35955 131.000
68.39945 107.000
68.43935 104.000
68.47925 118.000
68.51915 106.000
68.55905 104.000
68.59895 104.000
68.63885 114.000
68.67874 101.000
68.71864 98.000
68.75854 107.000
68.79844 117.000
68.83834 100.000
68.87824 99.000
68.91814 126.000
68.95804 119.000
68.99794 102.000
69.03783 82.000
69.07773 108.000
69.11763 110.000
69.15753 116.000
69.19743 113.000
69.23733 109.000
69.27723 109.000
69.31713 111.000
69.35703 107.000
69.39693 117.000
69.43682 126.000
69.47672 110.000
69.51662 103.000
69.55652 118.000
69.59642 117.000
69.63632 107.000
69.67622 105.000
69.71612 103.000
69.75602 116.000
69.79592 106.000
69.83581 136.000
69.87571 113.000
69.91561 124.000
69.95551 112.000
69.99541 111.000
70.03531 105.000
70.07521 91.000
70.11511 112.000
70.15501 115.000
70.19490 116.000
70.23480 127.000
70.27470 121.000
70.31460 104.000
70.35450 104.000
70.39440 100.000
70.43430 107.000
70.47420 96.000
70.51410 104.000
70.55400 101.000
70.59389 101.000
70.63379 103.000
70.67369 107.000
70.71359 121.000
70.75349 120.000
70.79339 128.000
70.83329 101.000
70.87319 96.000
70.91309 105.000
70.95299 110.000
70.99288 115.000
71.03278 96.000
71.07268 101.000
71.11258 103.000
71.15248 98.000
71.19238 115.000
71.23228 103.000
71.27218 109.000
71.31208 110.000
71.35197 117.000
71.39187 121.000
71.43177 120.000
71.47167 114.000
71.51157 145.000
71.55147 120.000
71.59137 114.000
71.63127 90.000
71.67117 117.000
71.71107 100.000
71.75096 102.000
71.79086 96.000
71.83076 100.000
71.87066 125.000
71.91056 98.000
71.95046 110.000
71.99036 98.000
72.03026 103.000
72.07016 98.000
72.11005 118.000
72.14995 136.000
72.18985 114.000
72.22975 122.000
72.26965 108.000
72.30955 116.000
72.34945 119.000
72.38935 103.000
72.42925 113.000
72.46915 95.000
72.50904 106.000
72.54894 87.000
72.58884 107.000
72.62874 106.000
72.66864 105.000
72.70854 108.000
72.74844 111.000
72.78834 116.000
72.82824 117.000
72.86814 98.000
72.90803 111.000
72.94793 124.000
72.98783 102.000
73.02773 104.000
73.06763 105.000
73.10753 94.000
73.14743 113.000
73.18733 119.000
73.22723 103.000
73.26712 108.000
73.30702 93.000
73.34692 103.000
73.38682 128.000
73.42672 101.000
73.46662 138.000
73.50652 101.000
73.54642 111.000
73.58632 120.000
73.62622 129.000
73.66611 119.000
73.70601 118.000
73.74591 121.000
73.78581 105.000
73.82571 125.000
73.86561 115.000
73.90551 116.000
73.94541 102.000
73.98531 112.000
74.02521 121.000
74.06510 117.000
74.10500 113.000
74.14490 95.000
74.18480 128.000
74.22470 100.000
74.26460 108.000
74.30450 108.000
74.34440 104.000
74.38430 102.000
74.42419 116.000
74.46409 131.000
74.50399 102.000
74.54389 99.000
74.58379 101.000
74.62369 120.000
74.66359 103.000
74.70349 109.000
74.74339 117.000
74.78329 104.000
74.82318 114.000
74.86308 129.000
74.90298 118.000
74.94288 110.000
74.98278 104.000
75.02268 95.000
75.06258 121.000
75.10248 116.000
75.14238 120.000
75.18228 94.000
75.22217 127.000
75.26207 105.000
75.30197 118.000
75.34187 95.000
75.38177 107.000
75.42167 107.000
75.46157 99.000
75.50147 117.000
75.54137 101.000
75.58126 84.000
75.62116 106.000
75.66106 127.000
75.70096 99.000
75.74086 97.000
75.78076 104.000
75.82066 96.000
75.86056 131.000
75.90046 111.000
75.94036 114.000
75.98025 132.000
76.02015 106.000
76.06005 107.000
76.09995 106.000
76.13985 111.000
76.17975 109.000
76.21965 127.000
76.25955 126.000
76.29945 119.000
76.33934 113.000
76.37924 94.000
76.41914 118.000
76.45904 128.000
76.49894 100.000
76.53884 110.000
76.57874 125.000
76.61864 101.000
76.65854 125.000
76.69844 105.000
76.73833 103.000
76.77823 116.000
76.81813 97.000
76.85803 123.000
76.89793 90.000
76.93783 107.000
76.97773 118.000
77.01763 109.000
77.05753 125.000
77.09743 85.000
77.13732 124.000
77.17722 106.000
77.21712 127.000
77.25702 120.000
77.29692 104.000
77.33682 110.000
77.37672 99.000
77.41662 110.000
77.45652 108.000
77.49641 112.000
77.53631 113.000
77.57621 106.000
77.61611 124.000
77.65601 105.000
77.69591 95.000
77.73581 106.000
77.77571 98.000
77.81561 90.000
77.85551 129.000
77.89540 128.000
77.93530 113.000
77.97520 101.000
78.01510 104.000
78.05500 115.000
78.09490 105.000
78.13480 98.000
78.17470 114.000
78.21460 112.000
78.25450 113.000
78.29439 115.000
78.33429 96.000
78.37419 121.000
78.41409 112.000
78.45399 121.000
78.49389 108.000
78.53379 95.000
78.57369 119.000
78.61359 124.000
78.65348 100.000
78.69338 109.000
78.73328 105.000
78.77318 121.000
78.81308 113.000
78.85298 91.000
78.89288 114.000
78.93278 111.000
78.97268 104.000
79.01258 99.000
79.05247 122.000
79.09237 85.000
79.13227 119.000
79.17217 101.000
79.21207 115.000
79.25197 89.000
79.29187 106.000
79.33177 97.000
79.37167 114.000
79.41157 90.000
79.45146 94.000
79.49136 114.000
79.53126 90.000
79.57116 121.000
79.61106 89.000
79.65096 106.000
79.69086 110.000
79.73076 108.000
79.77066 93.000
79.81055 92.000
79.85045 100.000
79.89035 111.000
79.93025 89.000
79.97015 100.000
80.01005 95.000
80.04995 99.000
80.08985 122.000
80.12975 108.000
80.16965 98.000
80.20954 116.000
80.24944 118.000
80.28934 109.000
