5.00000 77.000
5.03990 81.000
5.07980 74.000
5.11970 58.000
5.15960 84.000
5.19949 89.000
5.23939 73.000
5.27929 79.000
5.31919 83.000
5.35909 78.000
5.39899 86.000
5.43889 80.000
5.47879 85.000
5.51869 85.000
5.55859 77.000
5.59848 84.000
5.63838 100.000
5.67828 92.000
5.71818 96.000
5.75808 79.000
5.79798 95.000
5.83788 88.000
5.87778 94.000
5.91768 87.000
5.95758 93.000
5.99747 85.000
6.03737 116.000
6.07727 93.000
6.11717 111.000
6.15707 100.000
6.19697 105.000
6.23687 99.000
6.27677 88.000
6.31667 93.000
6.35656 88.000
6.39646 104.000
6.43636 93.000
6.47626 98.000
6.51616 122.000
6.55606 86.000
6.59596 104.000
6.63586 114.000
6.67576 86.000
6.71566 123.000
6.75555 90.000
6.79545 85.000
6.83535 109.000
6.87525 108.000
6.91515 103.000
6.95505 95.000
6.99495 125.000
7.03485 111.000
7.07475 87.000
7.11465 93.000
7.15454 115.000
7.19444 124.000
7.23434 120.000
7.27424 102.000
7.31414 97.000
7.35404 107.000
7.39394 115.000
7.43384 129.000
7.47374 91.000
7.51363 114.000
7.55353 107.000
7.59343 112.000
7.63333 107.000
7.67323 97.000
7.71313 106.000
7.75303 105.000
7.79293 120.000
7.83283 110.000
7.87273 115.000
7.91262 104.000
7.95252 103.000
7.99242 114.000
8.03232 126.000
8.07222 110.000
8.11212 103.000
8.15202 104.000
8.19192 107.000
8.23182 113.000
8.27171 113.000
8.31161 133.000
8.35151 107.000
8.39141 115.000
8.43131 116.000
8.47121 111.000
8.51111 111.000
8.55101 104.000
8.59091 115.000
8.63081 111.000
8.67070 100.000
8.71060 117.000
8.75050 102.000
8.79040 112.000
8.83030 121.000
8.87020 110.000
8.91010 117.000
8.95000 104.000
8.98990 109.000
9.02980 134.000
9.06969 118.000
9.10959 116.000
9.14949 128.000
9.18939 120.000
9.22929 109.000
9.26919 117.000
9.30909 107.000
9.34899 126.000
9.38889 110.000
9.42878 137.000
9.46868 119.000
9.50858 107.000
9.54848 111.000
9.58838 99.000
9.62828 113.000
9.66818 110.000
9.70808 129.000
9.74798 128.000
9.78788 118.000
9.82777 104.000
9.86767 111.000
9.90757 125.000
9.94747 142.000
9.98737 131.000
10.02727 127.000
10.06717 133.000
10.10707 105.000
10.14697 119.000
10.18687 134.000
10.22676 128.000
10.26666 102.000
10.30656 130.000
10.34646 128.000
10.38636 114.000
10.42626 91.000
10.46616 145.000
10.50606 111.000
10.54596 132.000
10.58585 135.000
10.62575 132.000
10.66565 111.000
10.70555 130.000
10.74545 133.000
10.78535 134.000
10.82525 140.000
10.86515 138.000
10.90505 127.000
10.94495 120.000
10.98484 134.000
11.02474 141.000
11.06464 132.000
11.10454 123.000
11.14444 132.000
11.18434 117.000
11.22424 128.000
11.26414 114.000
11.30404 150.000
11.34394 123.000
11.38383 138.000
11.42373 139.000
11.46363 136.000
11.50353 119.000
11.54343 126.000
11.58333 130.000
11.62323 133.000
11.66313 120.000
11.70303 111.000
11.74292 107.000
11.78282 99.000
11.82272 127.000
11.86262 138.000
11.90252 119.000
11.94242 141.000
11.98232 125.000
12.02222 141.000
12.06212 139.000
12.10202 112.000
12.14191 114.000
12.18181 145.000
12.22171 125.000
12.26161 118.000
12.30151 150.000
12.34141 146.000
12.38131 136.000
12.42121 148.000
12.46111 148.000
12.50100 153.000
12.54090 139.000
12.58080 137.000
12.62070 119.000
12.66060 165.000
12.70050 119.000
12.74040 126.000
12.78030 142.000
12.82020 128.000
12.86010 146.000
12.89999 123.000
12.93989 147.000
12.97979 131.000
13.01969 119.000
13.05959 135.000
13.09949 145.000
13.13939 146.000
13.17929 130.000
13.21919 104.000
13.25909 135.000
13.29898 129.000
13.33888 123.000
13.37878 136.000
13.41868 106.000
13.45858 149.000
13.49848 133.000
13.53838 131.000
13.57828 148.000
13.61818 141.000
13.65807 129.000
13.69797 138.000
13.73787 147.000
13.77777 141.000
13.81767 125.000
13.85757 142.000
13.89747 141.000
13.93737 118.000
13.97727 161.000
14.01717 113.000
14.05706 137.000
14.09696 149.000
14.13686 133.000
14.17676 146.000
14.21666 128.000
14.25656 125.000
14.29646 129.000
14.33636 133.000
14.37626 143.000
14.41616 131.000
14.45605 133.000
14.49595 157.000
14.53585 152.000
14.57575 150.000
14.61565 146.000
14.65555 145.000
14.69545 137.000
14.73535 129.000
14.77525 142.000
14.81514 141.000
14.85504 133.000
14.89494 141.000
14.93484 119.000
14.97474 167.000
15.01464 126.000
15.05454 114.000
15.09444 134.000
15.13434 136.000
15.17424 141.000
15.21413 134.000
15.25403 158.000
15.29393 140.000
15.33383 155.000
15.37373 149.000
15.41363 141.000
15.45353 151.000
15.49343 147.000
15.53333 146.000
15.57323 144.000
15.61312 147.000
15.65302 165.000
15.69292 146.000
15.73282 139.000
15.77272 152.000
15.81262 163.000
15.85252 129.000
15.89242 162.000
15.93232 137.000
15.97221 136.000
16.01211 134.000
16.05201 152.000
16.09191 157.000
16.13181 163.000
16.17171 142.000
16.21161 148.000
16.25151 150.000
16.29141 153.000
16.33131 156.000
16.37120 168.000
16.41110 140.000
16.45100 146.000
16.49090 146.000
16.53080 146.000
16.57070 179.000
16.61060 166.000
16.65050 174.000
16.69040 138.000
16.73029 164.000
16.77019 159.000
16.81009 163.000
16.84999 156.000
16.88989 154.000
16.92979 141.000
16.96969 139.000
17.00959 145.000
17.04949 160.000
17.08939 162.000
17.12928 165.000
17.16918 156.000
17.20908 177.000
17.24898 137.000
17.28888 160.000
17.32878 163.000
17.36868 153.000
17.40858 130.000
17.44848 183.000
17.48838 149.000
17.52827 164.000
17.56817 167.000
17.60807 151.000
17.64797 191.000
17.68787 172.000
17.72777 200.000
17.76767 171.000
17.80757 150.000
17.84747 150.000
17.88736 147.000
17.92726 188.000
17.96716 169.000
18.00706 202.000
18.04696 207.000
18.08686 143.000
18.12676 169.000
18.16666 161.000
18.20656 153.000
18.24646 153.000
18.28635 196.000
18.32625 171.000
18.36615 162.000
18.40605 186.000
18.44595 188.000
18.48585 183.000
18.52575 181.000
18.56565 194.000
18.60555 165.000
18.64545 182.000
18.68534 165.000
18.72524 184.000
18.76514 177.000
18.80504 207.000
18.84494 210.000
18.88484 174.000
18.92474 200.000
18.96464 212.000
19.00454 217.000
19.04443 213.000
19.08433 204.000
19.12423 200.000
19.16413 178.000
19.20403 188.000
19.24393 178.000
19.28383 205.000
19.32373 202.000
19.36363 207.000
19.40353 216.000
19.44342 198.000
19.48332 216.000
19.52322 207.000
19.56312 203.000
19.60302 187.000
19.64292 232.000
19.68282 213.000
19.72272 224.000
19.76262 202.000
19.80252 208.000
19.84241 188.000
19.88231 197.000
19.92221 194.000
19.96211 216.000
20.00201 217.000
20.04191 194.000
20.08181 219.000
20.12171 235.000
20.16161 236.000
20.20150 211.000
20.24140 212.000
20.28130 210.000
20.32120 217.000
20.36110 195.000
20.40100 209.000
20.44090 230.000
20.48080 241.000
20.52070 228.000
20.56060 233.000
20.60049 212.000
20.64039 231.000
20.68029 236.000
20.72019 205.000
20.76009 242.000
20.79999 236.000
20.83989 218.000
20.87979 230.000
20.91969 221.000
20.95959 224.000
20.99948 205.000
21.03938 224.000
21.07928 235.000
21.11918 214.000
21.15908 229.000
21.19898 218.000
21.23888 212.000
21.27878 234.000
21.31868 206.000
21.35857 223.000
21.39847 219.000
21.43837 223.000
21.47827 253.000
21.51817 240.000
21.55807 213.000
21.59797 233.000
21.63787 204.000
21.67777 221.000
21.71767 197.000
21.75756 199.000
21.79746 222.000
21.83736 216.000
21.87726 214.000
21.91716 196.000
21.95706 232.000
21.99696 216.000
22.03686 235.000
22.07676 230.000
22.11665 232.000
22.15655 225.000
22.19645 217.000
22.23635 215.000
22.27625 228.000
22.31615 214.000
22.35605 215.000
22.39595 208.000
22.43585 224.000
22.47575 209.000
22.51564 217.000
22.55554 219.000
22.59544 240.000
22.63534 221.000
22.67524 227.000
22.71514 209.000
22.75504 219.000
22.79494 205.000
22.83484 206.000
22.87474 201.000
22.91463 210.000
22.95453 225.000
22.99443 237.000
23.03433 200.000
23.07423 196.000
23.11413 225.000
23.15403 191.000
23.19393 205.000
23.23383 226.000
23.27372 225.000
23.31362 205.000
23.35352 219.000
23.39342 198.000
23.43332 211.000
23.47322 187.000
23.51312 226.000
23.55302 218.000
23.59292 245.000
23.63282 221.000
23.67271 197.000
23.71261 196.000
23.75251 181.000
23.79241 215.000
23.83231 198.000
23.87221 230.000
23.91211 187.000
23.95201 197.000
23.99191 184.000
24.03181 220.000
24.07170 228.000
24.11160 189.000
24.15150 231.000
24.19140 192.000
24.23130 174.000
24.27120 199.000
24.31110 200.000
24.35100 214.000
24.39090 200.000
24.43079 181.000
24.47069 183.000
24.51059 197.000
24.55049 163.000
24.59039 205.000
24.63029 190.000
24.67019 183.000
24.71009 170.000
24.74999 195.000
24.78989 195.000
24.82978 183.000
24.86968 163.000
24.90958 158.000
24.94948 165.000
24.98938 189.000
25.02928 187.000
25.06918 192.000
25.10908 191.000
25.14898 214.000
25.18888 196.000
25.22877 167.000
25.26867 189.000
25.30857 174.000
25.34847 193.000
25.38837 197.000
25.42827 183.000
25.46817 186.000
25.50807 184.000
25.54797 156.000
25.58786 183.000
25.62776 203.000
25.66766 180.000
25.70756 184.000
25.74746 173.000
25.78736 174.000
25.82726 177.000
25.86716 192.000
25.90706 181.000
25.94696 166.000
25.98685 150.000
26.02675 171.000
26.06665 181.000
26.10655 174.000
26.14645 169.000
26.18635 177.000
26.22625 161.000
26.26615 154.000
26.30605 186.000
26.34594 188.000
26.38584 171.000
26.42574 145.000
26.46564 163.000
26.50554 165.000
26.54544 169.000
26.58534 193.000
26.62524 163.000
26.66514 179.000
26.70504 180.000
26.74493 179.000
26.78483 177.000
26.82473 183.000
26.86463 176.000
26.90453 153.000
26.94443 168.000
26.98433 173.000
27.02423 181.000
27.06413 168.000
27.10403 175.000
27.14392 165.000
27.18382 174.000
27.22372 173.000
27.26362 168.000
27.30352 182.000
27.34342 178.000
27.38332 158.000
27.42322 181.000
27.46312 190.000
27.50301 168.000
27.54291 175.000
27.58281 220.000
27.62271 196.000
27.66261 174.000
27.70251 155.000
27.74241 166.000
27.78231 157.000
27.82221 177.000
27.86211 161.000
27.90200 171.000
27.94190 152.000
27.98180 179.000
28.02170 164.000
28.06160 163.000
28.10150 181.000
28.14140 138.000
28.18130 176.000
28.22120 148.000
28.26110 155.000
28.30099 165.000
28.34089 157.000
28.38079 162.000
28.42069 153.000
28.46059 149.000
28.50049 181.000
28.54039 160.000
28.58029 157.000
28.62019 166.000
28.66008 147.000
28.69998 141.000
28.73988 163.000
28.77978 146.000
28.81968 129.000
28.85958 169.000
28.89948 153.000
28.93938 165.000
28.97928 166.000
29.01918 125.000
29.05907 177.000
29.09897 182.000
29.13887 153.000
29.17877 155.000
29.21867 171.000
29.25857 157.000
29.29847 159.000
29.33837 139.000
29.37827 172.000
29.41817 165.000
29.45806 158.000
29.49796 167.000
29.53786 152.000
29.57776 136.000
29.61766 165.000
29.65756 163.000
29.69746 155.000
29.73736 167.000
29.77726 161.000
29.81715 157.000
29.85705 168.000
29.89695 168.000
29.93685 169.000
29.97675 158.000
30.01665 175.000
30.05655 172.000
30.09645 175.000
30.13635 164.000
30.17625 185.000
30.21614 145.000
30.25604 162.000
30.29594 127.000
30.33584 152.000
30.37574 181.000
30.41564 144.000
30.45554 155.000
30.49544 161.000
30.53534 179.000
30.57523 171.000
30.61513 158.000
30.65503 162.000
30.69493 147.000
30.73483 154.000
30.77473 142.000
30.81463 163.000
30.85453 176.000
30.89443 158.000
30.93433 146.000
30.97422 147.000
31.01412 161.000
31.05402 163.000
31.09392 172.000
31.13382 160.000
31.17372 157.000
31.21362 156.000
31.25352 152.000
31.29342 156.000
31.33332 154.000
31.37321 171.000
31.41311 144.000
31.45301 153.000
31.49291 145.000
31.53281 160.000
31.57271 170.000
31.61261 166.000
31.65251 145.000
31.69241 150.000
31.73230 174.000
31.77220 144.000
31.81210 160.000
31.85200 164.000
31.89190 126.000
31.93180 138.000
31.97170 143.000
32.01160 162.000
32.05150 145.000
32.09140 144.000
32.13129 168.000
32.17119 145.000
32.21109 156.000
32.25099 162.000
32.29089 165.000
32.33079 153.000
32.37069 167.000
32.41059 186.000
32.45049 176.000
32.49039 164.000
32.53028 173.000
32.57018 149.000
32.61008 176.000
32.64998 173.000
32.68988 175.000
32.72978 175.000
32.76968 168.000
32.80958 209.000
32.84948 209.000
32.88937 187.000
32.92927 187.000
32.96917 205.000
33.00907 168.000
33.04897 164.000
33.08887 180.000
33.12877 179.000
33.16867 191.000
33.20857 161.000
33.24847 172.000
33.28836 165.000
33.32826 161.000
33.36816 173.000
33.40806 153.000
33.44796 163.000
33.48786 145.000
33.52776 177.000
33.56766 141.000
33.60756 144.000
33.64746 152.000
33.68735 154.000
33.72725 153.000
33.76715 137.000
33.80705 159.000
33.84695 153.000
33.88685 155.000
33.92675 166.000
33.96665 150.000
34.00655 162.000
34.04644 128.000
34.08634 138.000
34.12624 150.000
34.16614 128.000
34.20604 157.000
34.24594 170.000
34.28584 146.000
34.32574 176.000
34.36564 145.000
34.40554 158.000
34.44543 136.000
34.48533 140.000
34.52523 144.000
34.56513 171.000
34.60503 152.000
34.64493 156.000
34.68483 163.000
34.72473 169.000
34.76463 148.000
34.80453 129.000
34.84442 122.000
34.88432 147.000
34.92422 149.000
34.96412 151.000
35.00402 172.000
35.04392 153.000
35.08382 153.000
35.12372 181.000
35.16362 170.000
35.20351 149.000
35.24341 169.000
35.28331 169.000
35.32321 168.000
35.36311 152.000
35.40301 144.000
35.44291 154.000
35.48281 156.000
35.52271 176.000
35.56261 145.000
35.60250 174.000
35.64240 149.000
35.68230 142.000
35.72220 151.000
35.76210 173.000
35.80200 152.000
35.84190 145.000
35.88180 140.000
35.92170 140.000
35.96159 129.000
36.00149 156.000
36.04139 150.000
36.08129 137.000
36.12119 153.000
36.16109 142.000
36.20099 155.000
36.24089 153.000
36.28079 136.000
36.32069 153.000
36.36058 151.000
36.40048 169.000
36.44038 174.000
36.48028 152.000
36.52018 133.000
36.56008 176.000
36.59998 166.000
36.63988 142.000
36.67978 155.000
36.71968 139.000
36.75957 154.000
36.79947 150.000
36.83937 137.000
36.87927 133.000
36.91917 139.000
36.95907 149.000
36.99897 160.000
37.03887 145.000
37.07877 129.000
37.11866 132.000
37.15856 164.000
37.19846 167.000
37.23836 149.000
37.27826 119.000
37.31816 136.000
37.35806 140.000
37.39796 152.000
37.43786 146.000
37.47776 123.000
37.51765 134.000
37.55755 156.000
37.59745 134.000
37.63735 153.000
37.67725 150.000
37.71715 134.000
37.75705 128.000
37.79695 127.000
37.83685 145.000
37.87675 134.000
37.91664 152.000
37.95654 144.000
37.99644 165.000
38.03634 118.000
38.07624 149.000
38.11614 138.000
38.15604 145.000
38.19594 124.000
38.23584 127.000
38.27573 105.000
38.31563 130.000
38.35553 144.000
38.39543 150.000
38.43533 144.000
38.47523 145.000
38.51513 124.000
38.55503 146.000
38.59493 148.000
38.63483 121.000
38.67472 104.000
38.71462 134.000
38.75452 132.000
38.79442 144.000
38.83432 126.000
38.87422 143.000
38.91412 142.000
38.95402 133.000
38.99392 125.000
39.03382 130.000
39.07371 139.000
39.11361 130.000
39.15351 146.000
39.19341 143.000
39.23331 149.000
39.27321 132.000
39.31311 147.000
39.35301 146.000
39.39291 151.000
39.43280 147.000
39.47270 146.000
39.51260 142.000
39.55250 132.000
39.59240 147.000
39.63230 147.000
39.67220 146.000
39.71210 146.000
39.75200 148.000
39.79190 132.000
39.83179 155.000
39.87169 140.000
39.91159 144.000
39.95149 126.000
39.99139 125.000
40.03129 128.000
40.07119 161.000
40.11109 141.000
40.15099 131.000
40.19088 134.000
40.23078 151.000
40.27068 155.000
40.31058 142.000
40.35048 160.000
40.39038 139.000
40.43028 134.000
40.47018 129.000
40.51008 128.000
40.54998 130.000
40.58987 158.000
40.62977 129.000
40.66967 127.000
40.70957 132.000
40.74947 147.000
40.78937 156.000
40.82927 134.000
40.86917 156.000
40.90907 163.000
40.94897 127.000
40.98886 143.000
41.02876 160.000
41.06866 126.000
41.10856 140.000
41.14846 143.000
41.18836 134.000
41.22826 129.000
41.26816 129.000
41.30806 110.000
41.34795 150.000
41.38785 156.000
41.42775 179.000
41.46765 126.000
41.50755 145.000
41.54745 116.000
41.58735 150.000
41.62725 133.000
41.66715 132.000
41.70705 150.000
41.74694 141.000
41.78684 133.000
41.82674 145.000
41.86664 125.000
41.90654 126.000
41.94644 115.000
41.98634 132.000
42.02624 123.000
42.06614 133.000
42.10604 124.000
42.14593 128.000
42.18583 132.000
42.22573 122.000
42.26563 130.000
42.30553 145.000
42.34543 138.000
42.38533 135.000
42.42523 131.000
42.46513 156.000
42.50502 140.000
42.54492 157.000
42.58482 123.000
42.62472 150.000
42.66462 139.000
42.70452 122.000
42.74442 139.000
42.78432 145.000
42.82422 144.000
42.86412 126.000
42.90401 124.000
42.94391 122.000
42.98381 121.000
43.02371 133.000
43.06361 129.000
43.10351 138.000
43.14341 128.000
43.18331 139.000
43.22321 128.000
43.26311 138.000
43.30300 147.000
43.34290 150.000
43.38280 146.000
43.42270 174.000
43.46260 128.000
43.50250 125.000
43.54240 140.000
43.58230 133.000
43.62220 136.000
43.66209 101.000
43.70199 147.000
43.74189 127.000
43.78179 126.000
43.82169 146.000
43.86159 126.000
43.90149 135.000
43.94139 139.000
43.98129 152.000
44.02119 150.000
44.06108 140.000
44.10098 148.000
44.14088 143.000
44.18078 123.000
44.22068 152.000
44.26058 136.000
44.30048 136.000
44.34038 144.000
44.38028 142.000
44.42017 126.000
44.46007 124.000
44.49997 132.000
44.53987 144.000
44.57977 133.000
44.61967 133.000
44.65957 147.000
44.69947 117.000
44.73937 138.000
44.77927 146.000
44.81916 145.000
44.85906 136.000
44.89896 150.000
44.93886 146.000
44.97876 153.000
45.01866 160.000
45.05856 135.000
45.09846 135.000
45.13836 125.000
45.17826 136.000
45.21815 138.000
45.25805 126.000
45.29795 155.000
45.33785 134.000
45.37775 131.000
45.41765 138.000
45.45755 118.000
45.49745 150.000
45.53735 121.000
45.57724 122.000
45.61714 122.000
45.65704 139.000
45.69694 135.000
45.73684 138.000
45.77674 132.000
45.81664 126.000
45.85654 119.000
45.89644 136.000
45.93634 148.000
45.97623 147.000
46.01613 155.000
46.05603 128.000
46.09593 153.000
46.13583 145.000
46.17573 134.000
46.21563 141.000
46.25553 130.000
46.29543 140.000
46.33533 121.000
46.37522 135.000
46.41512 142.000
46.45502 135.000
46.49492 130.000
46.53482 126.000
46.57472 111.000
46.61462 155.000
46.65452 121.000
46.69442 120.000
46.73431 136.000
46.77421 140.000
46.81411 122.000
46.85401 142.000
46.89391 132.000
46.93381 149.000
46.97371 135.000
47.01361 120.000
47.05351 139.000
47.09341 115.000
47.13330 133.000
47.17320 126.000
47.21310 142.000
47.25300 129.000
47.29290 137.000
47.33280 130.000
47.37270 147.000
47.41260 150.000
47.45250 136.000
47.49240 124.000
47.53229 133.000
47.57219 128.000
47.61209 125.000
47.65199 122.000
47.69189 135.000
47.73179 133.000
47.77169 140.000
47.81159 131.000
47.85149 129.000
47.89138 154.000
47.93128 124.000
47.97118 132.000
48.01108 128.000
48.05098 139.000
48.09088 147.000
48.13078 125.000
48.17068 146.000
48.21058 125.000
48.25048 125.000
48.29037 130.000
48.33027 127.000
48.37017 130.000
48.41007 131.000
48.44997 157.000
48.48987 111.000
48.52977 126.000
48.56967 142.000
48.60957 130.000
48.64946 133.000
48.68936 127.000
48.72926 147.000
48.76916 117.000
48.80906 156.000
48.84896 132.000
48.88886 131.000
48.92876 120.000
48.96866 138.000
49.00856 158.000
49.04845 127.000
49.08835 144.000
49.12825 133.000
49.16815 148.000
49.20805 131.000
49.24795 134.000
49.28785 138.000
49.32775 125.000
49.36765 146.000
49.40755 143.000
49.44744 137.000
49.48734 126.000
49.52724 138.000
49.56714 144.000
49.60704 153.000
49.64694 146.000
49.68684 122.000
49.72674 141.000
49.76664 156.000
49.80653 136.000
49.84643 141.000
49.88633 133.000
49.92623 138.000
49.96613 144.000
50.00603 140.000
50.04593 134.000
50.08583 146.000
50.12573 130.000
50.16563 116.000
50.20552 121.000
50.24542 138.000
50.28532 137.000
50.32522 134.000
50.36512 110.000
50.40502 122.000
50.44492 120.000
50.48482 134.000
50.52472 117.000
50.56462 121.000
50.60451 140.000
50.64441 111.000
50.68431 130.000
50.72421 139.000
50.76411 148.000
50.80401 111.000
50.84391 119.000
50.88381 142.000
50.92371 141.000
50.96360 102.000
51.00350 126.000
51.04340 140.000
51.08330 123.000
51.12320 134.000
51.16310 132.000
51.20300 126.000
51.24290 130.000
51.28280 135.000
51.32270 134.000
51.36259 132.000
51.40249 125.000
51.44239 123.000
51.48229 145.000
51.52219 128.000
51.56209 135.000
51.60199 128.000
51.64189 128.000
51.68179 121.000
51.72169 145.000
51.76158 138.000
51.80148 128.000
51.84138 134.000
51.88128 131.000
51.92118 126.000
51.96108 131.000
52.00098 140.000
52.04088 138.000
52.08078 145.000
52.12067 142.000
52.16057 117.000
52.20047 147.000
52.24037 143.000
52.28027 124.000
52.32017 129.000
52.36007 116.000
52.39997 149.000
52.43987 129.000
52.47977 118.000
52.51966 148.000
52.55956 127.000
52.59946 131.000
52.63936 128.000
52.67926 134.000
52.71916 130.000
52.75906 134.000
52.79896 122.000
52.83886 144.000
52.87876 114.000
52.91865 128.000
52.95855 144.000
52.99845 130.000
53.03835 142.000
53.07825 142.000
53.11815 126.000
53.15805 142.000
53.19795 142.000
53.23785 122.000
53.27774 113.000
53.31764 121.000
53.35754 130.000
53.39744 131.000
53.43734 148.000
53.47724 133.000
53.51714 116.000
53.55704 120.000
53.59694 150.000
53.63684 123.000
53.67673 120.000
53.71663 131.000
53.75653 135.000
53.79643 140.000
53.83633 126.000
53.87623 131.000
53.91613 127.000
53.95603 133.000
53.99593 131.000
54.03582 116.000
54.07572 149.000
54.11562 134.000
54.15552 133.000
54.19542 147.000
54.23532 117.000
54.27522 140.000
54.31512 114.000
54.35502 149.000
54.39492 121.000
54.43481 110.000
54.47471 109.000
54.51461 132.000
54.55451 123.000
54.59441 133.000
54.63431 135.000
54.67421 147.000
54.71411 143.000
54.75401 118.000
54.79391 137.000
54.83380 124.000
54.87370 119.000
54.91360 136.000
54.95350 139.000
54.99340 118.000
55.03330 126.000
55.07320 123.000
55.11310 130.000
55.15300 108.000
55.19289 132.000
55.23279 114.000
55.27269 118.000
55.31259 138.000
55.35249 123.000
55.39239 144.000
55.43229 136.000
55.47219 103.000
55.51209 118.000
55.55199 131.000
55.59188 145.000
55.63178 132.000
55.67168 137.000
55.71158 120.000
55.75148 138.000
55.79138 142.000
55.83128 118.000
55.87118 122.000
55.91108 134.000
55.95098 134.000
55.99087 126.000
56.03077 104.000
56.07067 138.000
56.11057 123.000
56.15047 106.000
56.19037 126.000
56.23027 126.000
56.27017 119.000
56.31007 116.000
56.34996 147.000
56.38986 130.000
56.42976 129.000
56.46966 129.000
56.50956 143.000
56.54946 129.000
56.58936 138.000
56.62926 132.000
56.66916 133.000
56.70906 107.000
56.74895 113.000
56.78885 126.000
56.82875 135.000
56.86865 126.000
56.90855 118.000
56.94845 148.000
56.98835 121.000
57.02825 115.000
57.06815 152.000
57.10805 138.000
57.14794 160.000
57.18784 141.000
57.22774 121.000
57.26764 135.000
57.30754 127.000
57.34744 132.000
57.38734 116.000
57.42724 132.000
57.46714 124.000
57.50703 130.000
57.54693 116.000
57.58683 136.000
57.62673 126.000
57.66663 143.000
57.70653 117.000
57.74643 122.000
57.78633 139.000
57.82623 123.000
57.86613 118.000
57.90602 125.000
57.94592 136.000
57.98582 121.000
58.02572 141.000
58.06562 113.000
58.10552 136.000
58.14542 135.000
58.18532 145.000
58.22522 146.000
58.26511 133.000
58.30501 122.000
58.34491 140.000
58.38481 124.000
58.42471 126.000
58.46461 116.000
58.50451 132.000
58.54441 110.000
58.58431 133.000
58.62421 119.000
58.66410 134.000
58.70400 140.000
58.74390 142.000
58.78380 147.000
58.82370 142.000
58.86360 151.000
58.90350 131.000
58.94340 152.000
58.98330 120.000
59.02320 113.000
59.06309 139.000
59.10299 119.000
59.14289 120.000
59.18279 126.000
59.22269 123.000
59.26259 137.000
59.30249 124.000
59.34239 129.000
59.38229 142.000
59.42218 115.000
59.46208 125.000
59.50198 127.000
59.54188 126.000
59.58178 140.000
59.62168 137.000
59.66158 139.000
59.70148 144.000
59.74138 130.000
59.78128 113.000
59.82117 139.000
59.86107 125.000
59.90097 114.000
59.94087 150.000
59.98077 138.000
60.02067 109.000
60.06057 111.000
60.10047 135.000
60.14037 149.000
60.18027 127.000
60.22016 126.000
60.26006 122.000
60.29996 158.000
60.33986 125.000
60.37976 137.000
60.41966 124.000
60.45956 121.000
60.49946 151.000
60.53936 133.000
60.57925 134.000
60.61915 135.000
60.65905 131.000
60.69895 127.000
60.73885 156.000
60.77875 113.000
60.81865 155.000
60.85855 131.000
60.89845 144.000
60.93835 154.000
60.97824 126.000
61.01814 140.000
61.05804 149.000
61.09794 153.000
61.13784 143.000
61.17774 140.000
61.21764 132.000
61.25754 142.000
61.29744 141.000
61.33734 126.000
61.37723 130.000
61.41713 154.000
61.45703 123.000
61.49693 142.000
61.53683 138.000
61.57673 131.000
61.61663 133.000
61.65653 118.000
61.69643 105.000
61.73632 157.000
61.77622 129.000
61.81612 122.000
61.85602 128.000
61.89592 134.000
61.93582 125.000
61.97572 118.000
62.01562 135.000
62.05552 116.000
62.09542 129.000
62.13531 138.000
62.17521 135.000
62.21511 131.000
62.25501 119.000
62.29491 130.000
62.33481 152.000
62.37471 135.000
62.41461 133.000
62.45451 122.000
62.49440 136.000
62.53430 128.000
62.57420 138.000
62.61410 128.000
62.65400 123.000
62.69390 129.000
62.73380 138.000
62.77370 113.000
62.81360 115.000
62.85350 138.000
62.89339 133.000
62.93329 125.000
62.97319 143.000
63.01309 135.000
63.05299 136.000
63.09289 145.000
63.13279 124.000
63.17269 142.000
63.21259 138.000
63.25249 129.000
63.29238 130.000
63.33228 130.000
63.37218 152.000
63.41208 136.000
63.45198 128.000
63.49188 121.000
63.53178 145.000
63.57168 160.000
63.61158 140.000
63.65147 126.000
63.69137 128.000
63.73127 146.000
63.77117 129.000
63.81107 145.000
63.85097 137.000
63.89087 141.000
63.93077 119.000
63.97067 122.000
64.01057 140.000
64.05046 137.000
64.09036 117.000
64.13026 117.000
64.17016 135.000
64.21006 122.000
64.24996 124.000
64.28986 129.000
64.32976 137.000
64.36966 144.000
64.40956 121.000
64.44945 133.000
64.48935 119.000
64.52925 139.000
64.56915 121.000
64.60905 121.000
64.64895 128.000
64.68885 125.000
64.72875 130.000
64.76865 149.000
64.80854 159.000
64.84844 126.000
64.88834 136.000
64.92824 142.000
64.96814 125.000
65.00804 118.000
65.04794 127.000
65.08784 120.000
65.12774 144.000
65.16764 131.000
65.20753 133.000
65.24743 115.000
65.28733 140.000
65.32723 140.000
65.36713 124.000
65.40703 147.000
65.44693 116.000
65.48683 131.000
65.52673 118.000
65.56663 137.000
65.60652 144.000
65.64642 128.000
65.68632 126.000
65.72622 127.000
65.76612 120.000
65.80602 110.000
65.84592 120.000
65.88582 146.000
65.92572 118.000
65.96561 133.000
66.00551 115.000
66.04541 130.000
66.08531 134.000
66.12521 126.000
66.16511 144.000
66.20501 123.000
66.24491 116.000
66.28481 122.000
66.32471 113.000
66.36460 149.000
66.40450 124.000
66.44440 137.000
66.48430 127.000
66.52420 123.000
66.56410 122.000
66.60400 143.000
66.64390 135.000
66.68380 140.000
66.72370 121.000
66.76359 135.000
66.80349 107.000
66.84339 130.000
66.88329 133.000
66.92319 127.000
66.96309 122.000
67.00299 150.000
67.04289 122.000
67.08279 114.000
67.12268 140.000
67.16258 117.000
67.20248 124.000
67.24238 117.000
67.28228 122.000
67.32218 135.000
67.36208 134.000
67.40198 130.000
67.44188 136.000
67.48178 142.000
67.52167 139.000
67.56157 127.000
67.60147 119.000
67.64137 125.000
67.68127 122.000
67.72117 148.000
67.76107 112.000
67.80097 145.000
67.84087 135.000
67.88076 114.000
67.92066 140.000
67.96056 109.000
68.00046 132.000
68.04036 124.000
68.08026 122.000
68.12016 133.000
68.16006 145.000
68.19996 131.000
68.23986 137.000
68.27975 127.000
68.31965 131.000
68.35955 121.000
68.39945 129.000
68.43935 133.000
68.47925 134.000
68.51915 115.000
68.55905 128.000
68.59895 124.000
68.63885 109.000
68.67874 119.000
68.71864 108.000
68.75854 130.000
68.79844 134.000
68.83834 144.000
68.87824 110.000
68.91814 114.000
68.95804 134.000
68.99794 134.000
69.03783 118.000
69.07773 110.000
69.11763 120.000
69.15753 116.000
69.19743 124.000
69.23733 112.000
69.27723 119.000
69.31713 160.000
69.35703 114.000
69.39693 126.000
69.43682 129.000
69.47672 124.000
69.51662 125.000
69.55652 119.000
69.59642 127.000
69.63632 123.000
69.67622 119.000
69.71612 107.000
69.75602 146.000
69.79592 130.000
69.83581 129.000
69.87571 146.000
69.91561 119.000
69.95551 126.000
69.99541 129.000
70.03531 128.000
70.07521 112.000
70.11511 134.000
70.15501 139.000
70.19490 144.000
70.23480 141.000
70.27470 144.000
70.31460 104.000
70.35450 129.000
70.39440 129.000
70.43430 121.000
70.47420 148.000
70.51410 103.000
70.55400 143.000
70.59389 122.000
70.63379 131.000
70.67369 129.000
70.71359 159.000
70.75349 116.000
70.79339 103.000
70.83329 131.000
70.87319 125.000
70.91309 132.000
70.95299 148.000
70.99288 133.000
71.03278 119.000
71.07268 144.000
71.11258 137.000
71.15248 143.000
71.19238 126.000
71.23228 140.000
71.27218 129.000
71.31208 144.000
71.35197 127.000
71.39187 143.000
71.43177 126.000
71.47167 118.000
71.51157 121.000
71.55147 136.000
71.59137 122.000
71.63127 111.000
71.67117 118.000
71.71107 136.000
71.75096 129.000
71.79086 143.000
71.83076 119.000
71.87066 110.000
71.91056 121.000
71.95046 136.000
71.99036 122.000
72.03026 124.000
72.07016 138.000
72.11005 133.000
72.14995 137.000
72.18985 104.000
72.22975 127.000
72.26965 135.000
72.30955 118.000
72.34945 117.000
72.38935 110.000
72.42925 113.000
72.46915 134.000
72.50904 137.000
72.54894 125.000
72.58884 124.000
72.62874 130.000
72.66864 141.000
72.70854 130.000
72.74844 134.000
72.78834 115.000
72.82824 133.000
72.86814 124.000
72.90803 150.000
72.94793 126.000
72.98783 126.000
73.02773 129.000
73.06763 116.000
73.10753 127.000
73.14743 146.000
73.18733 111.000
73.22723 108.000
73.26712 124.000
73.30702 120.000
73.34692 111.000
73.38682 119.000
73.42672 105.000
73.46662 125.000
73.50652 124.000
73.54642 148.000
73.58632 118.000
73.62622 120.000
73.66611 131.000
73.70601 144.000
73.74591 122.000
73.78581 128.000
73.82571 123.000
73.86561 118.000
73.90551 138.000
73.94541 137.000
73.98531 120.000
74.02521 141.000
74.06510 133.000
74.10500 113.000
74.14490 132.000
74.18480 110.000
74.22470 130.000
74.26460 111.000
74.30450 135.000
74.34440 127.000
74.38430 117.000
74.42419 118.000
74.46409 124.000
74.50399 127.000
74.54389 119.000
74.58379 115.000
74.62369 121.000
74.66359 128.000
74.70349 148.000
74.74339 125.000
74.78329 106.000
74.82318 139.000
74.86308 133.000
74.90298 140.000
74.94288 149.000
74.98278 141.000
75.02268 125.000
75.06258 124.000
75.10248 137.000
75.14238 126.000
75.18228 141.000
75.22217 121.000
75.26207 113.000
75.30197 138.000
75.34187 114.000
75.38177 132.000
75.42167 130.000
75.46157 135.000
75.50147 143.000
75.54137 134.000
75.58126 133.000
75.62116 120.000
75.66106 125.000
75.70096 147.000
75.74086 125.000
75.78076 122.000
75.82066 108.000
75.86056 139.000
75.90046 136.000
75.94036 128.000
75.98025 118.000
76.02015 116.000
76.06005 146.000
76.09995 126.000
76.13985 137.000
76.17975 128.000
76.21965 131.000
76.25955 129.000
76.29945 109.000
76.33934 131.000
76.37924 127.000
76.41914 111.000
76.45904 132.000
76.49894 124.000
76.53884 118.000
76.57874 112.000
76.61864 124.000
76.65854 125.000
76.69844 118.000
76.73833 122.000
76.77823 117.000
76.81813 102.000
76.85803 128.000
76.89793 116.000
76.93783 122.000
76.97773 132.000
77.01763 142.000
77.05753 117.000
77.09743 130.000
77.13732 149.000
77.17722 141.000
77.21712 121.000
77.25702 130.000
77.29692 142.000
77.33682 115.000
77.37672 123.000
77.41662 122.000
77.45652 131.000
77.49641 129.000
77.53631 133.000
77.57621 133.000
77.61611 116.000
77.65601 124.000
77.69591 118.000
77.73581 122.000
77.77571 132.000
77.81561 130.000
77.85551 128.000
77.89540 115.000
77.93530 116.000
77.97520 141.000
78.01510 126.000
78.05500 109.000
78.09490 129.000
78.13480 117.000
78.17470 122.000
78.21460 123.000
78.25450 130.000
78.29439 119.000
78.33429 136.000
78.37419 117.000
78.41409 123.000
78.45399 121.000
78.49389 124.000
78.53379 121.000
78.57369 125.000
78.61359 117.000
78.65348 111.000
78.69338 117.000
78.73328 121.000
78.77318 113.000
78.81308 127.000
78.85298 121.000
78.89288 131.000
78.93278 127.000
78.97268 135.000
79.01258 126.000
79.05247 111.000
79.09237 120.000
79.13227 129.000
79.17217 138.000
79.21207 117.000
79.25197 135.000
79.29187 123.000
79.33177 144.000
79.37167 122.000
79.41157 110.000
79.45146 118.000
79.49136 113.000
79.53126 122.000
79.57116 123.000
79.61106 119.000
79.65096 133.000
79.69086 111.000
79.73076 108.000
79.77066 116.000
79.81055 109.000
79.85045 113.000
79.89035 118.000
79.93025 124.000
79.97015 131.000
80.01005 135.000
80.04995 125.000
80.08985 124.000
80.12975 116.000
80.16965 128.000
80.20954 131.000
80.24944 129.000
80.28934 120.000
