5.00000 50.000
5.03990 67.000
5.07980 67.000
5.11970 65.000
5.15960 72.000
5.19949 75.000
5.23939 79.000
5.27929 57.000
5.31919 75.000
5.35909 90.000
5.39899 77.000
5.43889 83.000
5.47879 70.000
5.51869 67.000
5.55859 70.000
5.59848 79.000
5.63838 77.000
5.67828 67.000
5.71818 71.000
5.75808 92.000
5.79798 74.000
5.83788 85.000
5.87778 90.000
5.91768 81.000
5.95758 74.000
5.99747 87.000
6.03737 87.000
6.07727 89.000
6.11717 71.000
6.15707 79.000
6.19697 84.000
6.23687 103.000
6.27677 80.000
6.31667 80.000
6.35656 85.000
6.39646 88.000
6.43636 97.000
6.47626 98.000
6.51616 96.000
6.55606 110.000
6.59596 76.000
6.63586 96.000
6.67576 91.000
6.71566 75.000
6.75555 88.000
6.79545 95.000
6.83535 88.000
6.87525 82.000
6.91515 98.000
6.95505 77.000
6.99495 101.000
7.03485 96.000
7.07475 108.000
7.11465 107.000
7.15454 118.000
7.19444 107.000
7.23434 99.000
7.27424 82.000
7.31414 90.000
7.35404 94.000
7.39394 95.000
7.43384 90.000
7.47374 89.000
7.51363 105.000
7.55353 92.000
7.59343 105.000
7.63333 90.000
7.67323 86.000
7.71313 98.000
7.75303 106.000
7.79293 109.000
7.83283 101.000
7.87273 88.000
7.91262 96.000
7.95252 101.000
7.99242 86.000
8.03232 82.000
8.07222 85.000
8.11212 104.000
8.15202 94.000
8.19192 112.000
8.23182 91.000
8.27171 89.000
8.31161 97.000
8.35151 110.000
8.39141 109.000
8.43131 90.000
8.47121 85.000
8.51111 97.000
8.55101 86.000
8.59091 102.000
8.63081 116.000
8.67070 100.000
8.71060 94.000
8.75050 111.000
8.79040 108.000
8.83030 110.000
8.87020 103.000
8.91010 107.000
8.95000 82.000
8.98990 95.000
9.02980 88.000
9.06969 93.000
9.10959 111.000
9.14949 93.000
9.18939 106.000
9.22929 98.000
9.26919 101.000
9.30909 90.000
9.34899 102.000
9.38889 88.000
9.42878 116.000
9.46868 106.000
9.50858 108.000
9.54848 94.000
9.58838 104.000
9.62828 137.000
9.66818 88.000
9.70808 108.000
9.74798 95.000
9.78788 106.000
9.82777 109.000
9.86767 87.000
9.90757 98.000
9.94747 101.000
9.98737 116.000
10.02727 111.000
10.06717 103.000
10.10707 112.000
10.14697 128.000
10.18687 87.000
10.22676 126.000
10.26666 97.000
10.30656 94.000
10.34646 99.000
10.38636 102.000
10.42626 99.000
10.46616 107.000
10.50606 96.000
10.54596 138.000
10.58585 113.000
10.62575 112.000
10.66565 104.000
10.70555 91.000
10.74545 111.000
10.78535 94.000
10.82525 101.000
10.86515 143.000
10.90505 106.000
10.94495 111.000
10.98484 89.000
11.02474 112.000
11.06464 115.000
11.10454 96.000
11.14444 99.000
11.18434 104.000
11.22424 112.000
11.26414 111.000
11.30404 102.000
11.34394 138.000
11.38383 99.000
11.42373 108.000
11.46363 116.000
11.50353 121.000
11.54343 98.000
11.58333 107.000
11.62323 123.000
11.66313 109.000
11.70303 121.000
11.74292 127.000
11.78282 122.000
11.82272 102.000
11.86262 130.000
11.90252 98.000
11.94242 133.000
11.98232 112.000
12.02222 116.000
12.06212 128.000
12.10202 104.000
12.14191 118.000
12.18181 125.000
12.22171 108.000
12.26161 99.000
12.30151 114.000
12.34141 106.000
12.38131 122.000
12.42121 131.000
12.46111 111.000
12.50100 120.000
12.54090 125.000
12.58080 106.000
12.62070 118.000
12.66060 107.000
12.70050 105.000
12.74040 118.000
12.78030 121.000
12.82020 123.000
12.86010 124.000
12.89999 92.000
12.93989 115.000
12.97979 119.000
13.01969 102.000
13.05959 107.000
13.09949 108.000
13.13939 125.000
13.17929 112.000
13.21919 137.000
13.25909 115.000
13.29898 104.000
13.33888 119.000
13.37878 117.000
13.41868 112.000
13.45858 114.000
13.49848 97.000
13.53838 101.000
13.57828 117.000
13.61818 107.000
13.65807 115.000
13.69797 120.000
13.73787 124.000
13.77777 123.000
13.81767 114.000
13.85757 122.000
13.89747 125.000
13.93737 117.000
13.97727 95.000
14.01717 116.000
14.05706 124.000
14.09696 119.000
14.13686 108.000
14.17676 121.000
14.21666 141.000
14.25656 130.000
14.29646 120.000
14.33636 131.000
14.37626 110.000
14.41616 139.000
14.45605 125.000
14.49595 128.000
14.53585 122.000
14.57575 128.000
14.61565 94.000
14.65555 123.000
14.69545 132.000
14.73535 124.000
14.77525 120.000
14.81514 116.000
14.85504 129.000
14.89494 120.000
14.93484 132.000
14.97474 138.000
15.01464 134.000
15.05454 126.000
15.09444 121.000
15.13434 120.000
15.17424 119.000
15.21413 96.000
15.25403 124.000
15.29393 127.000
15.33383 112.000
15.37373 126.000
15.41363 121.000
15.45353 133.000
15.49343 107.000
15.53333 130.000
15.57323 124.000
15.61312 111.000
15.65302 126.000
15.69292 125.000
15.73282 120.000
15.77272 127.000
15.81262 129.000
15.85252 112.000
15.89242 116.000
15.93232 147.000
15.97221 145.000
16.01211 138.000
16.05201 145.000
16.09191 121.000
16.13181 132.000
16.17171 134.000
16.21161 144.000
16.25151 135.000
16.29141 152.000
16.33131 141.000
16.37120 143.000
16.41110 119.000
16.45100 140.000
16.49090 163.000
16.53080 135.000
16.57070 125.000
16.61060 161.000
16.65050 162.000
16.69040 143.000
16.73029 139.000
16.77019 161.000
16.81009 123.000
16.84999 150.000
16.88989 151.000
16.92979 134.000
16.96969 140.000
17.00959 146.000
17.04949 139.000
17.08939 133.000
17.12928 165.000
17.16918 166.000
17.20908 170.000
17.24898 156.000
17.28888 154.000
17.32878 142.000
17.36868 144.000
17.40858 131.000
17.44848 148.000
17.48838 137.000
17.52827 156.000
17.56817 173.000
17.60807 152.000
17.64797 173.000
17.68787 172.000
17.72777 175.000
17.76767 168.000
17.80757 153.000
17.84747 159.000
17.88736 156.000
17.92726 177.000
17.96716 161.000
18.00706 182.000
18.04696 157.000
18.08686 193.000
18.12676 192.000
18.16666 164.000
18.20656 162.000
18.24646 186.000
18.28635 135.000
18.32625 187.000
18.36615 161.000
18.40605 172.000
18.44595 170.000
18.48585 156.000
18.52575 187.000
18.56565 187.000
18.60555 191.000
18.64545 189.000
18.68534 175.000
18.72524 197.000
18.76514 178.000
18.80504 180.000
18.84494 184.000
18.88484 176.000
18.92474 182.000
18.96464 188.000
19.00454 194.000
19.04443 190.000
19.08433 236.000
19.12423 190.000
19.16413 208.000
19.20403 200.000
19.24393 222.000
19.28383 203.000
19.32373 205.000
19.36363 201.000
19.40353 201.000
19.44342 207.000
19.48332 205.000
19.52322 223.000
19.56312 226.000
19.60302 192.000
19.64292 226.000
19.68282 229.000
19.72272 220.000
19.76262 228.000
19.80252 217.000
19.84241 196.000
19.88231 237.000
19.92221 249.000
19.96211 249.000
20.00201 199.000
20.04191 257.000
20.08181 260.000
20.12171 230.000
20.16161 242.000
20.20150 236.000
20.24140 225.000
20.28130 249.000
20.32120 219.000
20.36110 240.000
20.40100 215.000
20.44090 216.000
20.48080 246.000
20.52070 224.000
20.56060 262.000
20.60049 235.000
20.64039 231.000
20.68029 245.000
20.72019 259.000
20.76009 213.000
20.79999 230.000
20.83989 227.000
20.87979 243.000
20.91969 243.000
20.95959 272.000
20.99948 245.000
21.03938 225.000
21.07928 228.000
21.11918 255.000
21.15908 271.000
21.19898 258.000
21.23888 218.000
21.27878 250.000
21.31868 198.000
21.35857 240.000
21.39847 229.000
21.43837 243.000
21.47827 217.000
21.51817 247.000
21.55807 214.000
21.59797 229.000
21.63787 218.000
21.67777 254.000
21.71767 209.000
21.75756 253.000
21.79746 261.000
21.83736 241.000
21.87726 252.000
21.91716 243.000
21.95706 233.000
21.99696 235.000
22.03686 233.000
22.07676 255.000
22.11665 242.000
22.15655 235.000
22.19645 253.000
22.23635 233.000
22.27625 223.000
22.31615 251.000
22.35605 257.000
22.39595 244.000
22.43585 245.000
22.47575 192.000
22.51564 216.000
22.55554 227.000
22.59544 217.000
22.63534 234.000
22.67524 230.000
22.71514 234.000
22.75504 217.000
22.79494 221.000
22.83484 239.000
22.87474 199.000
22.91463 223.000
22.95453 237.000
22.99443 218.000
23.03433 241.000
23.07423 205.000
23.11413 224.000
23.15403 221.000
23.19393 186.000
23.23383 230.000
23.27372 225.000
23.31362 202.000
23.35352 202.000
23.39342 198.000
23.43332 182.000
23.47322 195.000
23.51312 187.000
23.55302 219.000
23.59292 194.000
23.63282 223.000
23.67271 198.000
23.71261 201.000
23.75251 211.000
23.79241 224.000
23.83231 194.000
23.87221 172.000
23.91211 210.000
23.95201 198.000
23.99191 197.000
24.03181 197.000
24.07170 164.000
24.11160 180.000
24.15150 210.000
24.19140 182.000
24.23130 209.000
24.27120 185.000
24.31110 194.000
24.35100 194.000
24.39090 184.000
24.43079 174.000
24.47069 160.000
24.51059 158.000
24.55049 170.000
24.59039 193.000
24.63029 158.000
24.67019 194.000
24.71009 175.000
24.74999 169.000
24.78989 169.000
24.82978 142.000
24.86968 166.000
24.90958 143.000
24.94948 172.000
24.98938 195.000
25.02928 180.000
25.06918 185.000
25.10908 175.000
25.14898 177.000
25.18888 148.000
25.22877 181.000
25.26867 177.000
25.30857 164.000
25.34847 157.000
25.38837 131.000
25.42827 159.000
25.46817 148.000
25.50807 166.000
25.54797 161.000
25.58786 161.000
25.62776 146.000
25.66766 164.000
25.70756 157.000
25.74746 155.000
25.78736 160.000
25.82726 167.000
25.86716 158.000
25.90706 162.000
25.94696 158.000
25.98685 159.000
26.02675 155.000
26.06665 161.000
26.10655 147.000
26.14645 174.000
26.18635 129.000
26.22625 161.000
26.26615 159.000
26.30605 143.000
26.34594 153.000
26.38584 146.000
26.42574 160.000
26.46564 142.000
26.50554 171.000
26.54544 152.000
26.58534 163.000
26.62524 165.000
26.66514 154.000
26.70504 137.000
26.74493 167.000
26.78483 148.000
26.82473 132.000
26.86463 135.000
26.90453 156.000
26.94443 149.000
26.98433 132.000
27.02423 177.000
27.06413 142.000
27.10403 148.000
27.14392 144.000
27.18382 128.000
27.22372 119.000
27.26362 129.000
27.30352 115.000
27.34342 156.000
27.38332 131.000
27.42322 132.000
27.46312 130.000
27.50301 140.000
27.54291 139.000
27.58281 135.000
27.62271 142.000
27.66261 137.000
27.70251 130.000
27.74241 151.000
27.78231 137.000
27.82221 150.000
27.86211 131.000
27.90200 127.000
27.94190 132.000
27.98180 130.000
28.02170 155.000
28.06160 136.000
28.10150 121.000
28.14140 142.000
28.18130 138.000
28.22120 131.000
28.26110 140.000
28.30099 126.000
28.34089 134.000
28.38079 144.000
28.42069 112.000
28.46059 121.000
28.50049 127.000
28.54039 127.000
28.58029 132.000
28.62019 146.000
28.66008 122.000
28.69998 150.000
28.73988 100.000
28.77978 116.000
28.81968 106.000
28.85958 131.000
28.89948 119.000
28.93938 120.000
28.97928 124.000
29.01918 118.000
29.05907 117.000
29.09897 110.000
29.13887 116.000
29.17877 136.000
29.21867 123.000
29.25857 129.000
29.29847 138.000
29.33837 148.000
29.37827 113.000
29.41817 105.000
29.45806 109.000
29.49796 126.000
29.53786 106.000
29.57776 99.000
29.61766 134.000
29.65756 120.000
29.69746 132.000
29.73736 115.000
29.77726 118.000
29.81715 112.000
29.85705 114.000
29.89695 110.000
29.93685 108.000
29.97675 114.000
30.01665 139.000
30.05655 134.000
30.09645 129.000
30.13635 101.000
30.17625 114.000
30.21614 117.000
30.25604 117.000
30.29594 113.000
30.33584 113.000
30.37574 124.000
30.41564 116.000
30.45554 99.000
30.49544 111.000
30.53534 129.000
30.57523 101.000
30.61513 116.000
30.65503 118.000
30.69493 113.000
30.73483 143.000
30.77473 123.000
30.81463 127.000
30.85453 92.000
30.89443 122.000
30.93433 114.000
30.97422 126.000
31.01412 107.000
31.05402 100.000
31.09392 122.000
31.13382 111.000
31.17372 112.000
31.21362 103.000
31.25352 112.000
31.29342 116.000
31.33332 103.000
31.37321 113.000
31.41311 101.000
31.45301 117.000
31.49291 121.000
31.53281 95.000
31.57271 101.000
31.61261 105.000
31.65251 100.000
31.69241 120.000
31.73230 120.000
31.77220 116.000
31.81210 122.000
31.85200 102.000
31.89190 112.000
31.93180 98.000
31.97170 87.000
32.01160 95.000
32.05150 90.000
32.09140 91.000
32.13129 103.000
32.17119 107.000
32.21109 97.000
32.25099 115.000
32.29089 102.000
32.33079 106.000
32.37069 112.000
32.41059 93.000
32.45049 103.000
32.49039 117.000
32.53028 109.000
32.57018 94.000
32.61008 108.000
32.64998 107.000
32.68988 123.000
32.72978 94.000
32.76968 125.000
32.80958 111.000
32.84948 134.000
32.88937 100.000
32.92927 124.000
32.96917 112.000
33.00907 110.000
33.04897 94.000
33.08887 95.000
33.12877 116.000
33.16867 111.000
33.20857 120.000
33.24847 90.000
33.28836 84.000
33.32826 109.000
33.36816 114.000
33.40806 107.000
33.44796 103.000
33.48786 109.000
33.52776 92.000
33.56766 92.000
33.60756 108.000
33.64746 104.000
33.68735 108.000
33.72725 98.000
33.76715 91.000
33.80705 126.000
33.84695 97.000
33.88685 103.000
33.92675 93.000
33.96665 103.000
34.00655 85.000
34.04644 118.000
34.08634 94.000
34.12624 102.000
34.16614 98.000
34.20604 111.000
34.24594 91.000
34.28584 84.000
34.32574 103.000
34.36564 89.000
34.40554 90.000
34.44543 97.000
34.48533 108.000
34.52523 106.000
34.56513 107.000
34.60503 95.000
34.64493 95.000
34.68483 106.000
34.72473 87.000
34.76463 114.000
34.80453 103.000
34.84442 117.000
34.88432 96.000
34.92422 94.000
34.96412 95.000
35.00402 89.000
35.04392 97.000
35.08382 89.000
35.12372 92.000
35.16362 94.000
35.20351 90.000
35.24341 95.000
35.28331 104.000
35.32321 99.000
35.36311 104.000
35.40301 114.000
35.44291 94.000
35.48281 100.000
35.52271 96.000
35.56261 83.000
35.60250 91.000
35.64240 114.000
35.68230 107.000
35.72220 82.000
35.76210 92.000
35.80200 95.000
35.84190 98.000
35.88180 92.000
35.92170 102.000
35.96159 111.000
36.00149 99.000
36.04139 92.000
36.08129 100.000
36.12119 94.000
36.16109 97.000
36.20099 93.000
36.24089 72.000
36.28079 82.000
36.32069 104.000
36.36058 107.000
36.40048 94.000
36.44038 98.000
36.48028 108.000
36.52018 115.000
36.56008 108.000
36.59998 75.000
36.63988 81.000
36.67978 96.000
36.71968 98.000
36.75957 95.000
36.79947 82.000
36.83937 90.000
36.87927 89.000
36.91917 71.000
36.95907 110.000
36.99897 74.000
37.03887 94.000
37.07877 95.000
37.11866 99.000
37.15856 83.000
37.19846 103.000
37.23836 99.000
37.27826 91.000
37.31816 91.000
37.35806 105.000
37.39796 84.000
37.43786 98.000
37.47776 90.000
37.51765 100.000
37.55755 91.000
37.59745 91.000
37.63735 96.000
37.67725 80.000
37.71715 81.000
37.75705 87.000
37.79695 88.000
37.83685 82.000
37.87675 93.000
37.91664 91.000
37.95654 85.000
37.99644 107.000
38.03634 87.000
38.07624 83.000
38.11614 88.000
38.15604 84.000
38.19594 79.000
38.23584 87.000
38.27573 75.000
38.31563 97.000
38.35553 82.000
38.39543 76.000
38.43533 81.000
38.47523 97.000
38.51513 98.000
38.55503 79.000
38.59493 79.000
38.63483 85.000
38.67472 94.000
38.71462 84.000
38.75452 90.000
38.79442 71.000
38.83432 77.000
38.87422 88.000
38.91412 76.000
38.95402 91.000
38.99392 87.000
39.03382 96.000
39.07371 84.000
39.11361 75.000
39.15351 101.000
39.19341 73.000
39.23331 79.000
39.27321 71.000
39.31311 70.000
39.35301 71.000
39.39291 85.000
39.43280 92.000
39.47270 89.000
39.51260 80.000
39.55250 80.000
39.59240 77.000
39.63230 95.000
39.67220 95.000
39.71210 101.000
39.75200 104.000
39.79190 70.000
39.83179 78.000
39.87169 69.000
39.91159 89.000
39.95149 84.000
39.99139 84.000
40.03129 80.000
40.07119 80.000
40.11109 82.000
40.15099 70.000
40.19088 74.000
40.23078 73.000
40.27068 92.000
40.31058 91.000
40.35048 95.000
40.39038 59.000
40.43028 65.000
40.47018 93.000
40.51008 76.000
40.54998 81.000
40.58987 89.000
40.62977 92.000
40.66967 83.000
40.70957 71.000
40.74947 73.000
40.78937 74.000
40.82927 95.000
40.86917 86.000
40.90907 92.000
40.94897 74.000
40.98886 60.000
41.02876 96.000
41.06866 85.000
41.10856 67.000
41.14846 85.000
41.18836 79.000
41.22826 88.000
41.26816 82.000
41.30806 75.000
41.34795 89.000
41.38785 75.000
41.42775 91.000
41.46765 81.000
41.50755 96.000
41.54745 90.000
41.58735 92.000
41.62725 71.000
41.66715 85.000
41.70705 69.000
41.74694 91.000
41.78684 84.000
41.82674 80.000
41.86664 90.000
41.90654 85.000
41.94644 90.000
41.98634 81.000
42.02624 62.000
42.06614 79.000
42.10604 78.000
42.14593 93.000
42.18583 84.000
42.22573 82.000
42.26563 69.000
42.30553 94.000
42.34543 72.000
42.38533 86.000
42.42523 95.000
42.46513 63.000
42.50502 80.000
42.54492 83.000
42.58482 78.000
42.62472 87.000
42.66462 87.000
42.70452 79.000
42.74442 83.000
42.78432 79.000
42.82422 65.000
42.86412 86.000
42.90401 88.000
42.94391 96.000
42.98381 72.000
43.02371 83.000
43.06361 76.000
43.10351 78.000
43.14341 79.000
43.18331 96.000
43.22321 76.000
43.26311 72.000
43.30300 65.000
43.34290 83.000
43.38280 94.000
43.42270 78.000
43.46260 73.000
43.50250 78.000
43.54240 82.000
43.58230 77.000
43.62220 82.000
43.66209 73.000
43.70199 86.000
43.74189 67.000
43.78179 87.000
43.82169 82.000
43.86159 84.000
43.90149 84.000
43.94139 69.000
43.98129 96.000
44.02119 91.000
44.06108 72.000
44.10098 66.000
44.14088 77.000
44.18078 62.000
44.22068 68.000
44.26058 75.000
44.30048 80.000
44.34038 87.000
44.38028 75.000
44.42017 75.000
44.46007 77.000
44.49997 69.000
44.53987 85.000
44.57977 76.000
44.61967 79.000
44.65957 78.000
44.69947 68.000
44.73937 67.000
44.77927 62.000
44.81916 80.000
44.85906 78.000
44.89896 76.000
44.93886 80.000
44.97876 76.000
45.01866 96.000
45.05856 90.000
45.09846 78.000
45.13836 75.000
45.17826 79.000
45.21815 95.000
45.25805 76.000
45.29795 76.000
45.33785 84.000
45.37775 78.000
45.41765 83.000
45.45755 78.000
45.49745 76.000
45.53735 85.000
45.57724 90.000
45.61714 63.000
45.65704 82.000
45.69694 68.000
45.73684 75.000
45.77674 90.000
45.81664 76.000
45.85654 70.000
45.89644 70.000
45.93634 85.000
45.97623 72.000
46.01613 90.000
46.05603 88.000
46.09593 95.000
46.13583 69.000
46.17573 78.000
46.21563 87.000
46.25553 81.000
46.29543 72.000
46.33533 69.000
46.37522 59.000
46.41512 83.000
46.45502 75.000
46.49492 92.000
46.53482 80.000
46.57472 76.000
46.61462 90.000
46.65452 61.000
46.69442 80.000
46.73431 83.000
46.77421 82.000
46.81411 86.000
46.85401 68.000
46.89391 74.000
46.93381 86.000
46.97371 82.000
47.01361 69.000
47.05351 85.000
47.09341 68.000
47.13330 81.000
47.17320 64.000
47.21310 65.000
47.25300 77.000
47.29290 90.000
47.33280 93.000
47.37270 85.000
47.41260 68.000
47.45250 65.000
47.49240 62.000
47.53229 55.000
47.57219 71.000
47.61209 69.000
47.65199 83.000
47.69189 76.000
47.73179 80.000
47.77169 81.000
47.81159 78.000
47.85149 68.000
47.89138 75.000
47.93128 86.000
47.97118 73.000
48.01108 74.000
48.05098 74.000
48.09088 74.000
48.13078 81.000
48.17068 68.000
48.21058 64.000
48.25048 76.000
48.29037 74.000
48.33027 74.000
48.37017 76.000
48.41007 83.000
48.44997 77.000
48.48987 80.000
48.52977 93.000
48.56967 79.000
48.60957 72.000
48.64946 74.000
48.68936 52.000
48.72926 74.000
48.76916 77.000
48.80906 81.000
48.84896 83.000
48.88886 76.000
48.92876 70.000
48.96866 80.000
49.00856 64.000
49.04845 68.000
49.08835 78.000
49.12825 75.000
49.16815 73.000
49.20805 67.000
49.24795 71.000
49.28785 75.000
49.32775 74.000
49.36765 78.000
49.40755 65.000
49.44744 76.000
49.48734 50.000
49.52724 56.000
49.56714 78.000
49.60704 63.000
49.64694 59.000
49.68684 71.000
49.72674 56.000
49.76664 65.000
49.80653 79.000
49.84643 82.000
49.88633 70.000
49.92623 79.000
49.96613 73.000
50.00603 83.000
50.04593 72.000
50.08583 78.000
50.12573 65.000
50.16563 82.000
50.20552 69.000
50.24542 74.000
50.28532 67.000
50.32522 76.000
50.36512 71.000
50.40502 80.000
50.44492 89.000
50.48482 79.000
50.52472 78.000
50.56462 70.000
50.60451 70.000
50.64441 73.000
50.68431 78.000
50.72421 74.000
50.76411 61.000
50.80401 87.000
50.84391 74.000
50.88381 58.000
50.92371 78.000
50.96360 84.000
51.00350 58.000
51.04340 75.000
51.08330 79.000
51.12320 59.000
51.16310 79.000
51.20300 69.000
51.24290 62.000
51.28280 75.000
51.32270 72.000
51.36259 68.000
51.40249 72.000
51.44239 67.000
51.48229 65.000
51.52219 70.000
51.56209 84.000
51.60199 64.000
51.64189 74.000
51.68179 72.000
51.72169 81.000
51.76158 98.000
51.80148 80.000
51.84138 87.000
51.88128 71.000
51.92118 85.000
51.96108 66.000
52.00098 67.000
52.04088 63.000
52.08078 90.000
52.12067 66.000
52.16057 79.000
52.20047 85.000
52.24037 79.000
52.28027 61.000
52.32017 88.000
52.36007 66.000
52.39997 60.000
52.43987 65.000
52.47977 71.000
52.51966 61.000
52.55956 70.000
52.59946 77.000
52.63936 77.000
52.67926 82.000
52.71916 75.000
52.75906 63.000
52.79896 69.000
52.83886 89.000
52.87876 81.000
52.91865 77.000
52.95855 62.000
52.99845 52.000
53.03835 97.000
53.07825 77.000
53.11815 70.000
53.15805 73.000
53.19795 62.000
53.23785 73.000
53.27774 66.000
53.31764 71.000
53.35754 68.000
53.39744 76.000
53.43734 71.000
53.47724 77.000
53.51714 69.000
53.55704 76.000
53.59694 85.000
53.63684 55.000
53.67673 83.000
53.71663 80.000
53.75653 73.000
53.79643 77.000
53.83633 68.000
53.87623 80.000
53.91613 77.000
53.95603 60.000
53.99593 78.000
54.03582 93.000
54.07572 66.000
54.11562 63.000
54.15552 81.000
54.19542 64.000
54.23532 72.000
54.27522 74.000
54.31512 80.000
54.35502 83.000
54.39492 79.000
54.43481 73.000
54.47471 72.000
54.51461 73.000
54.55451 55.000
54.59441 62.000
54.63431 79.000
54.67421 76.000
54.71411 61.000
54.75401 61.000
54.79391 63.000
54.83380 67.000
54.87370 80.000
54.91360 73.000
54.95350 68.000
54.99340 72.000
55.03330 76.000
55.07320 73.000
55.11310 79.000
55.15300 85.000
55.19289 75.000
55.23279 75.000
55.27269 75.000
55.31259 69.000
55.35249 72.000
55.39239 87.000
55.43229 64.000
55.47219 92.000
55.51209 70.000
55.55199 75.000
55.59188 88.000
55.63178 76.000
55.67168 64.000
55.71158 67.000
55.75148 66.000
55.79138 75.000
55.83128 67.000
55.87118 80.000
55.91108 75.000
55.95098 76.000
55.99087 79.000
56.03077 60.000
56.07067 66.000
56.11057 78.000
56.15047 68.000
56.19037 76.000
56.23027 74.000
56.27017 72.000
56.31007 76.000
56.34996 78.000
56.38986 69.000
56.42976 66.000
56.46966 78.000
56.50956 68.000
56.54946 69.000
56.58936 71.000
56.62926 68.000
56.66916 75.000
56.70906 66.000
56.74895 74.000
56.78885 66.000
56.82875 78.000
56.86865 79.000
56.90855 68.000
56.94845 80.000
56.98835 72.000
57.02825 74.000
57.06815 84.000
57.10805 63.000
57.14794 67.000
57.18784 73.000
57.22774 81.000
57.26764 66.000
57.30754 67.000
57.34744 85.000
57.38734 63.000
57.42724 72.000
57.46714 64.000
57.50703 63.000
57.54693 79.000
57.58683 73.000
57.62673 66.000
57.66663 79.000
57.70653 68.000
57.74643 70.000
57.78633 71.000
57.82623 79.000
57.86613 75.000
57.90602 66.000
57.94592 71.000
57.98582 73.000
58.02572 76.000
58.06562 77.000
58.10552 76.000
58.14542 84.000
58.18532 75.000
58.22522 72.000
58.26511 69.000
58.30501 74.000
58.34491 65.000
58.38481 80.000
58.42471 72.000
58.46461 75.000
58.50451 76.000
58.54441 86.000
58.58431 71.000
58.62421 75.000
58.66410 67.000
58.70400 79.000
58.74390 62.000
58.78380 53.000
58.82370 70.000
58.86360 78.000
58.90350 78.000
58.94340 75.000
58.98330 91.000
59.02320 71.000
59.06309 67.000
59.10299 81.000
59.14289 66.000
59.18279 79.000
59.22269 68.000
59.26259 75.000
59.30249 86.000
59.34239 67.000
59.38229 73.000
59.42218 68.000
59.46208 75.000
59.50198 71.000
59.54188 64.000
59.58178 78.000
59.62168 78.000
59.66158 70.000
59.70148 74.000
59.74138 73.000
59.78128 76.000
59.82117 60.000
59.86107 70.000
59.90097 79.000
59.94087 60.000
59.98077 67.000
60.02067 75.000
60.06057 79.000
60.10047 73.000
60.14037 63.000
60.18027 66.000
60.22016 72.000
60.26006 71.000
60.29996 78.000
60.33986 66.000
60.37976 60.000
60.41966 86.000
60.45956 59.000
60.49946 70.000
60.53936 72.000
60.57925 71.000
60.61915 63.000
60.65905 75.000
60.69895 72.000
60.73885 82.000
60.77875 56.000
60.81865 71.000
60.85855 101.000
60.89845 67.000
60.93835 83.000
60.97824 73.000
61.01814 87.000
61.05804 69.000
61.09794 79.000
61.13784 55.000
61.17774 57.000
61.21764 73.000
61.25754 58.000
61.29744 80.000
61.33734 85.000
61.37723 66.000
61.41713 66.000
61.45703 90.000
61.49693 71.000
61.53683 62.000
61.57673 75.000
61.61663 79.000
61.65653 82.000
61.69643 87.000
61.73632 83.000
61.77622 78.000
61.81612 75.000
61.85602 71.000
61.89592 78.000
61.93582 60.000
61.97572 75.000
62.01562 68.000
62.05552 80.000
62.09542 84.000
62.13531 75.000
62.17521 65.000
62.21511 74.000
62.25501 86.000
62.29491 78.000
62.33481 63.000
62.37471 72.000
62.41461 59.000
62.45451 60.000
62.49440 81.000
62.53430 90.000
62.57420 62.000
62.61410 82.000
62.65400 73.000
62.69390 71.000
62.73380 97.000
62.77370 84.000
62.81360 80.000
62.85350 82.000
62.89339 62.000
62.93329 80.000
62.97319 70.000
63.01309 73.000
63.05299 73.000
63.09289 84.000
63.13279 71.000
63.17269 60.000
63.21259 79.000
63.25249 59.000
63.29238 70.000
63.33228 66.000
63.37218 77.000
63.41208 51.000
63.45198 79.000
63.49188 83.000
63.53178 77.000
63.57168 61.000
63.61158 75.000
63.65147 79.000
63.69137 84.000
63.73127 84.000
63.77117 79.000
63.81107 77.000
63.85097 58.000
63.89087 79.000
63.93077 82.000
63.97067 64.000
64.01057 62.000
64.05046 90.000
64.09036 79.000
64.13026 87.000
64.17016 63.000
64.21006 55.000
64.24996 67.000
64.28986 88.000
64.32976 66.000
64.36966 74.000
64.40956 71.000
64.44945 75.000
64.48935 68.000
64.52925 79.000
64.56915 74.000
64.60905 84.000
64.64895 53.000
64.68885 76.000
64.72875 77.000
64.76865 78.000
64.80854 86.000
64.84844 64.000
64.88834 82.000
64.92824 70.000
64.96814 72.000
65.00804 70.000
65.04794 68.000
65.08784 75.000
65.12774 70.000
65.16764 80.000
65.20753 73.000
65.24743 53.000
65.28733 85.000
65.32723 73.000
65.36713 62.000
65.40703 50.000
65.44693 80.000
65.48683 80.000
65.52673 75.000
65.56663 80.000
65.60652 76.000
65.64642 66.000
65.68632 69.000
65.72622 61.000
65.76612 73.000
65.80602 92.000
65.84592 80.000
65.88582 54.000
65.92572 59.000
65.96561 81.000
66.00551 86.000
66.04541 82.000
66.08531 86.000
66.12521 84.000
66.16511 74.000
66.20501 65.000
66.24491 82.000
66.28481 84.000
66.32471 61.000
66.36460 78.000
66.40450 55.000
66.44440 70.000
66.48430 65.000
66.52420 66.000
66.56410 75.000
66.60400 66.000
66.64390 52.000
66.68380 60.000
66.72370 66.000
66.76359 68.000
66.80349 71.000
66.84339 62.000
66.88329 76.000
66.92319 62.000
66.96309 74.000
67.00299 86.000
67.04289 75.000
67.08279 59.000
67.12268 68.000
67.16258 76.000
67.20248 66.000
67.24238 69.000
67.28228 75.000
67.32218 74.000
67.36208 67.000
67.40198 64.000
67.44188 88.000
67.48178 77.000
67.52167 61.000
67.56157 63.000
67.60147 54.000
67.64137 80.000
67.68127 71.000
67.72117 77.000
67.76107 67.000
67.80097 66.000
67.84087 62.000
67.88076 75.000
67.92066 77.000
67.96056 79.000
68.00046 74.000
68.04036 75.000
68.08026 61.000
68.12016 81.000
68.16006 58.000
68.19996 66.000
68.23986 76.000
68.27975 79.000
68.31965 62.000
68.35955 77.000
68.39945 65.000
68.43935 61.000
68.47925 70.000
68.51915 58.000
68.55905 88.000
68.59895 62.000
68.63885 63.000
68.67874 72.000
68.71864 82.000
68.75854 73.000
68.79844 77.000
68.83834 75.000
68.87824 67.000
68.91814 58.000
68.95804 81.000
68.99794 66.000
69.03783 74.000
69.07773 75.000
69.11763 62.000
69.15753 79.000
69.19743 64.000
69.23733 66.000
69.27723 60.000
69.31713 59.000
69.35703 46.000
69.39693 64.000
69.43682 78.000
69.47672 80.000
69.51662 57.000
69.55652 70.000
69.59642 66.000
69.63632 72.000
69.67622 63.000
69.71612 57.000
69.75602 49.000
69.79592 67.000
69.83581 70.000
69.87571 68.000
69.91561 65.000
69.95551 67.000
69.99541 65.000
70.03531 79.000
70.07521 63.000
70.11511 68.000
70.15501 81.000
70.19490 64.000
70.23480 75.000
70.27470 77.000
70.31460 67.000
70.35450 75.000
70.39440 79.000
70.43430 83.000
70.47420 68.000
70.51410 66.000
70.55400 61.000
70.59389 70.000
70.63379 60.000
70.67369 72.000
70.71359 64.000
70.75349 61.000
70.79339 63.000
70.83329 69.000
70.87319 70.000
70.91309 62.000
70.95299 67.000
70.99288 76.000
71.03278 69.000
71.07268 77.000
71.11258 70.000
71.15248 51.000
71.19238 69.000
71.23228 73.000
71.27218 73.000
71.31208 70.000
71.35197 69.000
71.39187 63.000
71.43177 69.000
71.47167 79.000
71.51157 72.000
71.55147 76.000
71.59137 76.000
71.63127 82.000
71.67117 42.000
71.71107 64.000
71.75096 77.000
71.79086 64.000
71.83076 66.000
71.87066 74.000
71.91056 73.000
71.95046 72.000
71.99036 73.000
72.03026 62.000
72.07016 68.000
72.11005 64.000
72.14995 75.000
72.18985 77.000
72.22975 74.000
72.26965 77.000
72.30955 62.000
72.34945 64.000
72.38935 70.000
72.42925 78.000
72.46915 54.000
72.50904 55.000
72.54894 56.000
72.58884 67.000
72.62874 79.000
72.66864 53.000
72.70854 70.000
72.74844 45.000
72.78834 61.000
72.82824 76.000
72.86814 80.000
72.90803 71.000
72.94793 63.000
72.98783 74.000
73.02773 44.000
73.06763 64.000
73.10753 68.000
73.14743 76.000
73.18733 65.000
73.22723 64.000
73.26712 71.000
73.30702 60.000
73.34692 57.000
73.38682 62.000
73.42672 60.000
73.46662 59.000
73.50652 72.000
73.54642 79.000
73.58632 69.000
73.62622 71.000
73.66611 64.000
73.70601 60.000
73.74591 63.000
73.78581 82.000
73.82571 60.000
73.86561 74.000
73.90551 58.000
73.94541 52.000
73.98531 55.000
74.02521 61.000
74.06510 59.000
74.10500 71.000
74.14490 81.000
74.18480 54.000
74.22470 66.000
74.26460 61.000
74.30450 64.000
74.34440 68.000
74.38430 78.000
74.42419 45.000
74.46409 49.000
74.50399 57.000
74.54389 61.000
74.58379 63.000
74.62369 64.000
74.66359 72.000
74.70349 73.000
74.74339 61.000
74.78329 72.000
74.82318 71.000
74.86308 67.000
74.90298 75.000
74.94288 63.000
74.98278 60.000
75.02268 69.000
75.06258 58.000
75.10248 58.000
75.14238 65.000
75.18228 59.000
75.22217 86.000
75.26207 74.000
75.30197 75.000
75.34187 88.000
75.38177 55.000
75.42167 64.000
75.46157 78.000
75.50147 61.000
75.54137 76.000
75.58126 55.000
75.62116 75.000
75.66106 78.000
75.70096 67.000
75.74086 63.000
75.78076 72.000
75.82066 89.000
75.86056 77.000
75.90046 67.000
75.94036 75.000
75.98025 74.000
76.02015 62.000
76.06005 78.000
76.09995 52.000
76.13985 67.000
76.17975 58.000
76.21965 59.000
76.25955 66.000
76.29945 81.000
76.33934 60.000
76.37924 60.000
76.41914 50.000
76.45904 68.000
76.49894 70.000
76.53884 70.000
76.57874 77.000
76.61864 68.000
76.65854 62.000
76.69844 64.000
76.73833 64.000
76.77823 72.000
76.81813 53.000
76.85803 61.000
76.89793 60.000
76.93783 75.000
76.97773 68.000
77.01763 70.000
77.05753 76.000
77.09743 67.000
77.13732 69.000
77.17722 93.000
77.21712 68.000
77.25702 64.000
77.29692 60.000
77.33682 58.000
77.37672 72.000
77.41662 70.000
77.45652 64.000
77.49641 83.000
77.53631 66.000
77.57621 60.000
77.61611 74.000
77.65601 76.000
77.69591 83.000
77.73581 48.000
77.77571 78.000
77.81561 60.000
77.85551 69.000
77.89540 65.000
77.93530 79.000
77.97520 68.000
78.01510 67.000
78.05500 62.000
78.09490 76.000
78.13480 63.000
78.17470 65.000
78.21460 62.000
78.25450 66.000
78.29439 52.000
78.33429 53.000
78.37419 71.000
78.41409 66.000
78.45399 68.000
78.49389 68.000
78.53379 73.000
78.57369 75.000
78.61359 60.000
78.65348 71.000
78.69338 75.000
78.73328 70.000
78.77318 78.000
78.81308 75.000
78.85298 63.000
78.89288 64.000
78.93278 69.000
78.97268 74.000
79.01258 72.000
79.05247 64.000
79.09237 55.000
79.13227 69.000
79.17217 67.000
79.21207 60.000
79.25197 71.000
79.29187 57.000
79.33177 66.000
79.37167 67.000
79.41157 74.000
79.45146 62.000
79.49136 63.000
79.53126 64.000
79.57116 65.000
79.61106 62.000
79.65096 57.000
79.69086 62.000
79.73076 69.000
79.77066 70.000
79.81055 65.000
79.85045 69.000
79.89035 72.000
79.93025 63.000
79.97015 61.000
80.01005 65.000
80.04995 56.000
80.08985 51.000
80.12975 59.000
80.16965 58.000
80.20954 69.000
80.24944 74.000
80.28934 53.000
