5.00000 63.000
5.03990 44.000
5.07980 42.000
5.11970 61.000
5.15960 71.000
5.19949 54.000
5.23939 61.000
5.27929 57.000
5.31919 59.000
5.35909 69.000
5.39899 48.000
5.43889 65.000
5.47879 56.000
5.51869 64.000
5.55859 68.000
5.59848 50.000
5.63838 74.000
5.67828 57.000
5.71818 74.000
5.75808 73.000
5.79798 79.000
5.83788 69.000
5.87778 81.000
5.91768 80.000
5.95758 72.000
5.99747 67.000
6.03737 58.000
6.07727 72.000
6.11717 67.000
6.15707 77.000
6.19697 64.000
6.23687 78.000
6.27677 64.000
6.31667 74.000
6.35656 65.000
6.39646 84.000
6.43636 85.000
6.47626 74.000
6.51616 74.000
6.55606 80.000
6.59596 75.000
6.63586 79.000
6.67576 71.000
6.71566 84.000
6.75555 83.000
6.79545 78.000
6.83535 91.000
6.87525 91.000
6.91515 69.000
6.95505 71.000
6.99495 86.000
7.03485 86.000
7.07475 85.000
7.11465 97.000
7.15454 85.000
7.19444 86.000
7.23434 80.000
7.27424 84.000
7.31414 79.000
7.35404 67.000
7.39394 75.000
7.43384 77.000
7.47374 75.000
7.51363 78.000
7.55353 93.000
7.59343 75.000
7.63333 90.000
7.67323 72.000
7.71313 92.000
7.75303 80.000
7.79293 85.000
7.83283 66.000
7.87273 94.000
7.91262 78.000
7.95252 72.000
7.99242 103.000
8.03232 99.000
8.07222 85.000
8.11212 91.000
8.15202 74.000
8.19192 82.000
8.23182 71.000
8.27171 89.000
8.31161 89.000
8.35151 84.000
8.39141 77.000
8.43131 85.000
8.47121 77.000
8.51111 82.000
8.55101 106.000
8.59091 65.000
8.63081 83.000
8.67070 87.000
8.71060 80.000
8.75050 90.000
8.79040 77.000
8.83030 77.000
8.87020 89.000
8.91010 84.000
8.95000 83.000
8.98990 81.000
9.02980 67.000
9.06969 68.000
9.10959 78.000
9.14949 78.000
9.18939 86.000
9.22929 78.000
9.26919 68.000
9.30909 84.000
9.34899 67.000
9.38889 103.000
9.42878 77.000
9.46868 69.000
9.50858 62.000
9.54848 89.000
9.58838 90.000
9.62828 78.000
9.66818 74.000
9.70808 72.000
9.74798 84.000
9.78788 111.000
9.82777 85.000
9.86767 81.000
9.90757 76.000
9.94747 76.000
9.98737 80.000
10.02727 75.000
10.06717 72.000
10.10707 85.000
10.14697 85.000
10.18687 83.000
10.22676 81.000
10.26666 81.000
10.30656 68.000
10.34646 91.000
10.38636 73.000
10.42626 77.000
10.46616 75.000
10.50606 75.000
10.54596 71.000
10.58585 93.000
10.62575 100.000
10.66565 75.000
10.70555 72.000
10.74545 71.000
10.78535 100.000
10.82525 99.000
10.86515 79.000
10.90505 86.000
10.94495 81.000
10.98484 81.000
11.02474 88.000
11.06464 85.000
11.10454 96.000
11.14444 82.000
11.18434 76.000
11.22424 65.000
11.26414 88.000
11.30404 89.000
11.34394 86.000
11.38383 69.000
11.42373 78.000
11.46363 87.000
11.50353 95.000
11.54343 87.000
11.58333 92.000
11.62323 79.000
11.66313 88.000
11.70303 86.000
11.74292 93.000
11.78282 97.000
11.82272 87.000
11.86262 88.000
11.90252 79.000
11.94242 85.000
11.98232 108.000
12.02222 100.000
12.06212 102.000
12.10202 68.000
12.14191 85.000
12.18181 94.000
12.22171 74.000
12.26161 89.000
12.30151 79.000
12.34141 87.000
12.38131 104.000
12.42121 76.000
12.46111 75.000
12.50100 88.000
12.54090 82.000
12.58080 78.000
12.62070 78.000
12.66060 75.000
12.70050 93.000
12.74040 78.000
12.78030 72.000
12.82020 83.000
12.86010 83.000
12.89999 89.000
12.93989 77.000
12.97979 75.000
13.01969 69.000
13.05959 96.000
13.09949 79.000
13.13939 80.000
13.17929 118.000
13.21919 72.000
13.25909 78.000
13.29898 97.000
13.33888 72.000
13.37878 85.000
13.41868 103.000
13.45858 102.000
13.49848 91.000
13.53838 79.000
13.57828 77.000
13.61818 86.000
13.65807 90.000
13.69797 87.000
13.73787 87.000
13.77777 86.000
13.81767 86.000
13.85757 90.000
13.89747 84.000
13.93737 72.000
13.97727 82.000
14.01717 93.000
14.05706 82.000
14.09696 78.000
14.13686 93.000
14.17676 94.000
14.21666 78.000
14.25656 82.000
14.29646 89.000
14.33636 75.000
14.37626 82.000
14.41616 72.000
14.45605 74.000
14.49595 77.000
14.53585 100.000
14.57575 109.000
14.61565 92.000
14.65555 92.000
14.69545 96.000
14.73535 74.000
14.77525 96.000
14.81514 85.000
14.85504 85.000
14.89494 83.000
14.93484 92.000
14.97474 94.000
15.01464 88.000
15.05454 76.000
15.09444 80.000
15.13434 92.000
15.17424 95.000
15.21413 82.000
15.25403 95.000
15.29393 83.000
15.33383 79.000
15.37373 84.000
15.41363 86.000
15.45353 75.000
15.49343 82.000
15.53333 94.000
15.57323 95.000
15.61312 91.000
15.65302 101.000
15.69292 102.000
15.73282 82.000
15.77272 73.000
15.81262 85.000
15.85252 86.000
15.89242 98.000
15.93232 89.000
15.97221 108.000
16.01211 88.000
16.05201 102.000
16.09191 99.000
16.13181 100.000
16.17171 83.000
16.21161 110.000
16.25151 111.000
16.29141 115.000
16.33131 110.000
16.37120 92.000
16.41110 88.000
16.45100 98.000
16.49090 93.000
16.53080 108.000
16.57070 117.000
16.61060 106.000
16.65050 112.000
16.69040 93.000
16.73029 101.000
16.77019 101.000
16.81009 114.000
16.84999 132.000
16.88989 93.000
16.92979 107.000
16.96969 124.000
17.00959 110.000
17.04949 100.000
17.08939 102.000
17.12928 98.000
17.16918 104.000
17.20908 106.000
17.24898 125.000
17.28888 116.000
17.32878 119.000
17.36868 127.000
17.40858 114.000
17.44848 116.000
17.48838 100.000
17.52827 125.000
17.56817 132.000
17.60807 130.000
17.64797 129.000
17.68787 145.000
17.72777 130.000
17.76767 135.000
17.80757 133.000
17.84747 133.000
17.88736 143.000
17.92726 128.000
17.96716 120.000
18.00706 120.000
18.04696 165.000
18.08686 129.000
18.12676 144.000
18.16666 128.000
18.20656 138.000
18.24646 119.000
18.28635 123.000
18.32625 132.000
18.36615 142.000
18.40605 134.000
18.44595 161.000
18.48585 150.000
18.52575 147.000
18.56565 133.000
18.60555 147.000
18.64545 150.000
18.68534 162.000
18.72524 142.000
18.76514 141.000
18.80504 155.000
18.84494 159.000
18.88484 144.000
18.92474 149.000
18.96464 149.000
19.00454 155.000
19.04443 164.000
19.08433 176.000
19.12423 140.000
19.16413 185.000
19.20403 169.000
19.24393 176.000
19.28383 180.000
19.32373 168.000
19.36363 188.000
19.40353 151.000
19.44342 181.000
19.48332 197.000
19.52322 167.000
19.56312 167.000
19.60302 157.000
19.64292 177.000
19.68282 197.000
19.72272 194.000
19.76262 172.000
19.80252 178.000
19.84241 184.000
19.88231 186.000
19.92221 166.000
19.96211 194.000
20.00201 185.000
20.04191 208.000
20.08181 176.000
20.12171 200.000
20.16161 216.000
20.20150 162.000
20.24140 191.000
20.28130 197.000
20.32120 191.000
20.36110 184.000
20.40100 192.000
20.44090 206.000
20.48080 217.000
20.52070 164.000
20.56060 189.000
20.60049 177.000
20.64039 217.000
20.68029 209.000
20.72019 216.000
20.76009 202.000
20.79999 187.000
20.83989 208.000
20.87979 219.000
20.91969 195.000
20.95959 199.000
20.99948 193.000
21.03938 192.000
21.07928 222.000
21.11918 198.000
21.15908 195.000
21.19898 186.000
21.23888 217.000
21.27878 197.000
21.31868 174.000
21.35857 196.000
21.39847 196.000
21.43837 213.000
21.47827 189.000
21.51817 227.000
21.55807 179.000
21.59797 208.000
21.63787 204.000
21.67777 217.000
21.71767 190.000
21.75756 201.000
21.79746 221.000
21.83736 211.000
21.87726 210.000
21.91716 195.000
21.95706 229.000
21.99696 217.000
22.03686 203.000
22.07676 209.000
22.11665 176.000
22.15655 185.000
22.19645 205.000
22.23635 188.000
22.27625 200.000
22.31615 199.000
22.35605 173.000
22.39595 204.000
22.43585 218.000
22.47575 184.000
22.51564 206.000
22.55554 161.000
22.59544 206.000
22.63534 204.000
22.67524 229.000
22.71514 172.000
22.75504 178.000
22.79494 179.000
22.83484 192.000
22.87474 198.000
22.91463 200.000
22.95453 166.000
22.99443 190.000
23.03433 164.000
23.07423 182.000
23.11413 174.000
23.15403 183.000
23.19393 184.000
23.23383 154.000
23.27372 188.000
23.31362 190.000
23.35352 158.000
23.39342 190.000
23.43332 164.000
23.47322 180.000
23.51312 174.000
23.55302 180.000
23.59292 160.000
23.63282 180.000
23.67271 162.000
23.71261 176.000
23.75251 192.000
23.79241 161.000
23.83231 158.000
23.87221 172.000
23.91211 148.000
23.95201 161.000
23.99191 154.000
24.03181 153.000
24.07170 161.000
24.11160 144.000
24.15150 174.000
24.19140 156.000
24.23130 175.000
24.27120 166.000
24.31110 149.000
24.35100 149.000
24.39090 162.000
24.43079 136.000
24.47069 159.000
24.51059 158.000
24.55049 137.000
24.59039 178.000
24.63029 153.000
24.67019 163.000
24.71009 130.000
24.74999 140.000
24.78989 165.000
24.82978 149.000
24.86968 134.000
24.90958 153.000
24.94948 143.000
24.98938 158.000
25.02928 141.000
25.06918 146.000
25.10908 152.000
25.14898 130.000
25.18888 127.000
25.22877 122.000
25.26867 149.000
25.30857 120.000
25.34847 127.000
25.38837 125.000
25.42827 106.000
25.46817 145.000
25.50807 150.000
25.54797 134.000
25.58786 147.000
25.62776 122.000
25.66766 126.000
25.70756 132.000
25.74746 126.000
25.78736 122.000
25.82726 133.000
25.86716 142.000
25.90706 121.000
25.94696 148.000
25.98685 128.000
26.02675 148.000
26.06665 108.000
26.10655 126.000
26.14645 116.000
26.18635 123.000
26.22625 106.000
26.26615 126.000
26.30605 134.000
26.34594 121.000
26.38584 122.000
26.42574 123.000
26.46564 112.000
26.50554 100.000
26.54544 126.000
26.58534 127.000
26.62524 128.000
26.66514 134.000
26.70504 101.000
26.74493 102.000
26.78483 113.000
26.82473 122.000
26.86463 114.000
26.90453 109.000
26.94443 124.000
26.98433 109.000
27.02423 134.000
27.06413 91.000
27.10403 129.000
27.14392 121.000
27.18382 131.000
27.22372 127.000
27.26362 99.000
27.30352 122.000
27.34342 105.000
27.38332 106.000
27.42322 109.000
27.46312 91.000
27.50301 120.000
27.54291 121.000
27.58281 120.000
27.62271 113.000
27.66261 112.000
27.70251 123.000
27.74241 99.000
27.78231 98.000
27.82221 115.000
27.86211 105.000
27.90200 84.000
27.94190 92.000
27.98180 117.000
28.02170 98.000
28.06160 106.000
28.10150 101.000
28.14140 92.000
28.18130 120.000
28.22120 117.000
28.26110 97.000
28.30099 82.000
28.34089 108.000
28.38079 109.000
28.42069 102.000
28.46059 115.000
28.50049 99.000
28.54039 90.000
28.58029 103.000
28.62019 119.000
28.66008 114.000
28.69998 96.000
28.73988 119.000
28.77978 108.000
28.81968 89.000
28.85958 105.000
28.89948 85.000
28.93938 99.000
28.97928 108.000
29.01918 127.000
29.05907 88.000
29.09897 91.000
29.13887 94.000
29.17877 97.000
29.21867 92.000
29.25857 93.000
29.29847 114.000
29.33837 98.000
29.37827 96.000
29.41817 107.000
29.45806 103.000
29.49796 103.000
29.53786 74.000
29.57776 88.000
29.61766 111.000
29.65756 94.000
29.69746 90.000
29.73736 99.000
29.77726 99.000
29.81715 104.000
29.85705 84.000
29.89695 91.000
29.93685 105.000
29.97675 95.000
30.01665 89.000
30.05655 79.000
30.09645 90.000
30.13635 105.000
30.17625 93.000
30.21614 80.000
30.25604 81.000
30.29594 96.000
30.33584 88.000
30.37574 104.000
30.41564 99.000
30.45554 89.000
30.49544 86.000
30.53534 101.000
30.57523 88.000
30.61513 92.000
30.65503 90.000
30.69493 106.000
30.73483 91.000
30.77473 97.000
30.81463 100.000
30.85453 75.000
30.89443 86.000
30.93433 98.000
30.97422 88.000
31.01412 95.000
31.05402 90.000
31.09392 96.000
31.13382 84.000
31.17372 96.000
31.21362 95.000
31.25352 89.000
31.29342 98.000
31.33332 95.000
31.37321 83.000
31.41311 92.000
31.45301 103.000
31.49291 87.000
31.53281 94.000
31.57271 87.000
31.61261 89.000
31.65251 92.000
31.69241 80.000
31.73230 86.000
31.77220 93.000
31.81210 87.000
31.85200 78.000
31.89190 87.000
31.93180 77.000
31.97170 92.000
32.01160 81.000
32.05150 96.000
32.09140 96.000
32.13129 95.000
32.17119 84.000
32.21109 90.000
32.25099 88.000
32.29089 88.000
32.33079 97.000
32.37069 99.000
32.41059 91.000
32.45049 90.000
32.49039 78.000
32.53028 81.000
32.57018 87.000
32.61008 67.000
32.64998 83.000
32.68988 102.000
32.72978 88.000
32.76968 82.000
32.80958 85.000
32.84948 103.000
32.88937 94.000
32.92927 91.000
32.96917 93.000
33.00907 81.000
33.04897 82.000
33.08887 89.000
33.12877 97.000
33.16867 92.000
33.20857 96.000
33.24847 73.000
33.28836 91.000
33.32826 72.000
33.36816 86.000
33.40806 70.000
33.44796 98.000
33.48786 83.000
33.52776 85.000
33.56766 71.000
33.60756 93.000
33.64746 75.000
33.68735 92.000
33.72725 79.000
33.76715 100.000
33.80705 81.000
33.84695 79.000
33.88685 81.000
33.92675 86.000
33.96665 72.000
34.00655 95.000
34.04644 74.000
34.08634 78.000
34.12624 76.000
34.16614 78.000
34.20604 70.000
34.24594 73.000
34.28584 76.000
34.32574 67.000
34.36564 61.000
34.40554 73.000
34.44543 84.000
34.48533 76.000
34.52523 94.000
34.56513 82.000
34.60503 69.000
34.64493 84.000
34.68483 83.000
34.72473 69.000
34.76463 88.000
34.80453 74.000
34.84442 88.000
34.88432 80.000
34.92422 73.000
34.96412 79.000
35.00402 97.000
35.04392 92.000
35.08382 89.000
35.12372 88.000
35.16362 58.000
35.20351 87.000
35.24341 82.000
35.28331 58.000
35.32321 68.000
35.36311 52.000
35.40301 85.000
35.44291 74.000
35.48281 62.000
35.52271 70.000
35.56261 80.000
35.60250 68.000
35.64240 71.000
35.68230 65.000
35.72220 74.000
35.76210 63.000
35.80200 80.000
35.84190 89.000
35.88180 71.000
35.92170 78.000
35.96159 64.000
36.00149 55.000
36.04139 61.000
36.08129 81.000
36.12119 72.000
36.16109 71.000
36.20099 68.000
36.24089 70.000
36.28079 65.000
36.32069 78.000
36.36058 68.000
36.40048 79.000
36.44038 72.000
36.48028 81.000
36.52018 67.000
36.56008 76.000
36.59998 80.000
36.63988 71.000
36.67978 60.000
36.71968 63.000
36.75957 67.000
36.79947 70.000
36.83937 74.000
36.87927 66.000
36.91917 70.000
36.95907 92.000
36.99897 82.000
37.03887 74.000
37.07877 74.000
37.11866 80.000
37.15856 60.000
37.19846 61.000
37.23836 64.000
37.27826 60.000
37.31816 79.000
37.35806 71.000
37.39796 57.000
37.43786 79.000
37.47776 66.000
37.51765 62.000
37.55755 64.000
37.59745 67.000
37.63735 75.000
37.67725 58.000
37.71715 68.000
37.75705 76.000
37.79695 73.000
37.83685 60.000
37.87675 57.000
37.91664 68.000
37.95654 73.000
37.99644 52.000
38.03634 62.000
38.07624 78.000
38.11614 54.000
38.15604 69.000
38.19594 72.000
38.23584 64.000
38.27573 64.000
38.31563 77.000
38.35553 61.000
38.39543 61.000
38.43533 62.000
38.47523 71.000
38.51513 63.000
38.55503 71.000
38.59493 57.000
38.63483 63.000
38.67472 78.000
38.71462 77.000
38.75452 64.000
38.79442 72.000
38.83432 74.000
38.87422 58.000
38.91412 73.000
38.95402 70.000
38.99392 71.000
39.03382 61.000
39.07371 71.000
39.11361 57.000
39.15351 75.000
39.19341 56.000
39.23331 52.000
39.27321 65.000
39.31311 50.000
39.35301 52.000
39.39291 73.000
39.43280 69.000
39.47270 55.000
39.51260 62.000
39.55250 68.000
39.59240 60.000
39.63230 73.000
39.67220 55.000
39.71210 65.000
39.75200 61.000
39.79190 65.000
39.83179 59.000
39.87169 76.000
39.91159 59.000
39.95149 70.000
39.99139 43.000
40.03129 46.000
40.07119 67.000
40.11109 52.000
40.15099 68.000
40.19088 57.000
40.23078 69.000
40.27068 60.000
40.31058 80.000
40.35048 56.000
40.39038 71.000
40.43028 58.000
40.47018 66.000
40.51008 55.000
40.54998 54.000
40.58987 64.000
40.62977 70.000
40.66967 60.000
40.70957 71.000
40.74947 71.000
40.78937 52.000
40.82927 61.000
40.86917 58.000
40.90907 62.000
40.94897 70.000
40.98886 48.000
41.02876 59.000
41.06866 67.000
41.10856 54.000
41.14846 54.000
41.18836 56.000
41.22826 53.000
41.26816 57.000
41.30806 60.000
41.34795 64.000
41.38785 67.000
41.42775 68.000
41.46765 67.000
41.50755 52.000
41.54745 69.000
41.58735 53.000
41.62725 63.000
41.66715 64.000
41.70705 60.000
41.74694 53.000
41.78684 59.000
41.82674 68.000
41.86664 61.000
41.90654 72.000
41.94644 69.000
41.98634 61.000
42.02624 60.000
42.06614 55.000
42.10604 56.000
42.14593 68.000
42.18583 62.000
42.22573 41.000
42.26563 49.000
42.30553 60.000
42.34543 55.000
42.38533 65.000
42.42523 54.000
42.46513 60.000
42.50502 68.000
42.54492 66.000
42.58482 52.000
42.62472 40.000
42.66462 53.000
42.70452 63.000
42.74442 67.000
42.78432 46.000
42.82422 64.000
42.86412 71.000
42.90401 67.000
42.94391 57.000
42.98381 67.000
43.02371 73.000
43.06361 73.000
43.10351 49.000
43.14341 70.000
43.18331 63.000
43.22321 48.000
43.26311 57.000
43.30300 52.000
43.34290 67.000
43.38280 51.000
43.42270 62.000
43.46260 66.000
43.50250 58.000
43.54240 58.000
43.58230 69.000
43.62220 54.000
43.66209 63.000
43.70199 72.000
43.74189 55.000
43.78179 55.000
43.82169 57.000
43.86159 57.000
43.90149 56.000
43.94139 54.000
43.98129 54.000
44.02119 55.000
44.06108 58.000
44.10098 65.000
44.14088 71.000
44.18078 53.000
44.22068 61.000
44.26058 58.000
44.30048 55.000
44.34038 62.000
44.38028 52.000
44.42017 50.000
44.46007 54.000
44.49997 65.000
44.53987 73.000
44.57977 67.000
44.61967 54.000
44.65957 70.000
44.69947 61.000
44.73937 48.000
44.77927 67.000
44.81916 57.000
44.85906 71.000
44.89896 66.000
44.93886 61.000
44.97876 61.000
45.01866 63.000
45.05856 63.000
45.09846 74.000
45.13836 57.000
45.17826 66.000
45.21815 61.000
45.25805 58.000
45.29795 65.000
45.33785 53.000
45.37775 64.000
45.41765 64.000
45.45755 64.000
45.49745 63.000
45.53735 50.000
45.57724 51.000
45.61714 48.000
45.65704 56.000
45.69694 46.000
45.73684 51.000
45.77674 59.000
45.81664 53.000
45.85654 63.000
45.89644 58.000
45.93634 51.000
45.97623 58.000
46.01613 55.000
46.05603 53.000
46.09593 66.000
46.13583 44.000
46.17573 57.000
46.21563 58.000
46.25553 56.000
46.29543 58.000
46.33533 65.000
46.37522 52.000
46.41512 48.000
46.45502 56.000
46.49492 71.000
46.53482 67.000
46.57472 48.000
46.61462 48.000
46.65452 55.000
46.69442 60.000
46.73431 51.000
46.77421 58.000
46.81411 51.000
46.85401 54.000
46.89391 60.000
46.93381 52.000
46.97371 61.000
47.01361 64.000
47.05351 54.000
47.09341 58.000
47.13330 58.000
47.17320 52.000
47.21310 61.000
47.25300 71.000
47.29290 50.000
47.33280 61.000
47.37270 60.000
47.41260 46.000
47.45250 61.000
47.49240 62.000
47.53229 47.000
47.57219 59.000
47.61209 58.000
47.65199 44.000
47.69189 48.000
47.73179 53.000
47.77169 54.000
47.81159 64.000
47.85149 54.000
47.89138 48.000
47.93128 56.000
47.97118 55.000
48.01108 45.000
48.05098 53.000
48.09088 71.000
48.13078 53.000
48.17068 53.000
48.21058 57.000
48.25048 41.000
48.29037 54.000
48.33027 52.000
48.37017 60.000
48.41007 61.000
48.44997 59.000
48.48987 50.000
48.52977 54.000
48.56967 52.000
48.60957 44.000
48.64946 50.000
48.68936 58.000
48.72926 52.000
48.76916 60.000
48.80906 55.000
48.84896 54.000
48.88886 59.000
48.92876 52.000
48.96866 55.000
49.00856 72.000
49.04845 49.000
49.08835 49.000
49.12825 52.000
49.16815 54.000
49.20805 68.000
49.24795 45.000
49.28785 49.000
49.32775 54.000
49.36765 56.000
49.40755 53.000
49.44744 44.000
49.48734 39.000
49.52724 66.000
49.56714 57.000
49.60704 53.000
49.64694 56.000
49.68684 42.000
49.72674 63.000
49.76664 51.000
49.80653 53.000
49.84643 72.000
49.88633 48.000
49.92623 58.000
49.96613 45.000
50.00603 69.000
50.04593 63.000
50.08583 50.000
50.12573 68.000
50.16563 56.000
50.20552 73.000
50.24542 76.000
50.28532 53.000
50.32522 55.000
50.36512 49.000
50.40502 59.000
50.44492 50.000
50.48482 63.000
50.52472 58.000
50.56462 45.000
50.60451 48.000
50.64441 44.000
50.68431 47.000
50.72421 51.000
50.76411 53.000
50.80401 47.000
50.84391 58.000
50.88381 52.000
50.92371 55.000
50.96360 56.000
51.00350 54.000
51.04340 50.000
51.08330 61.000
51.12320 53.000
51.16310 54.000
51.20300 59.000
51.24290 54.000
51.28280 60.000
51.32270 53.000
51.36259 51.000
51.40249 49.000
51.44239 60.000
51.48229 52.000
51.52219 56.000
51.56209 52.000
51.60199 61.000
51.64189 59.000
51.68179 56.000
51.72169 51.000
51.76158 68.000
51.80148 59.000
51.84138 44.000
51.88128 49.000
51.92118 61.000
51.96108 48.000
52.00098 55.000
52.04088 42.000
52.08078 40.000
52.12067 47.000
52.16057 49.000
52.20047 39.000
52.24037 50.000
52.28027 51.000
52.32017 49.000
52.36007 56.000
52.39997 52.000
52.43987 43.000
52.47977 55.000
52.51966 53.000
52.55956 60.000
52.59946 59.000
52.63936 66.000
52.67926 59.000
52.71916 52.000
52.75906 34.000
52.79896 56.000
52.83886 54.000
52.87876 54.000
52.91865 58.000
52.95855 59.000
52.99845 55.000
53.03835 51.000
53.07825 59.000
53.11815 63.000
53.15805 53.000
53.19795 45.000
53.23785 63.000
53.27774 45.000
53.31764 45.000
53.35754 49.000
53.39744 57.000
53.43734 37.000
53.47724 52.000
53.51714 50.000
53.55704 62.000
53.59694 51.000
53.63684 58.000
53.67673 45.000
53.71663 61.000
53.75653 39.000
53.79643 41.000
53.83633 51.000
53.87623 44.000
53.91613 62.000
53.95603 48.000
53.99593 39.000
54.03582 51.000
54.07572 51.000
54.11562 57.000
54.15552 51.000
54.19542 55.000
54.23532 61.000
54.27522 52.000
54.31512 51.000
54.35502 47.000
54.39492 45.000
54.43481 44.000
54.47471 54.000
54.51461 47.000
54.55451 68.000
54.59441 51.000
54.63431 41.000
54.67421 60.000
54.71411 55.000
54.75401 48.000
54.79391 61.000
54.83380 51.000
54.87370 44.000
54.91360 45.000
54.95350 58.000
54.99340 51.000
55.03330 48.000
55.07320 47.000
55.11310 60.000
55.15300 53.000
55.19289 45.000
55.23279 58.000
55.27269 50.000
55.31259 53.000
55.35249 53.000
55.39239 56.000
55.43229 54.000
55.47219 44.000
55.51209 47.000
55.55199 55.000
55.59188 41.000
55.63178 51.000
55.67168 50.000
55.71158 51.000
55.75148 58.000
55.79138 52.000
55.83128 42.000
55.87118 59.000
55.91108 39.000
55.95098 57.000
55.99087 51.000
56.03077 47.000
56.07067 49.000
56.11057 55.000
56.15047 61.000
56.19037 48.000
56.23027 54.000
56.27017 52.000
56.31007 57.000
56.34996 62.000
56.38986 56.000
56.42976 32.000
56.46966 57.000
56.50956 53.000
56.54946 54.000
56.58936 47.000
56.62926 51.000
56.66916 38.000
56.70906 58.000
56.74895 44.000
56.78885 54.000
56.82875 38.000
56.86865 60.000
56.90855 45.000
56.94845 54.000
56.98835 45.000
57.02825 57.000
57.06815 47.000
57.10805 56.000
57.14794 59.000
57.18784 45.000
57.22774 52.000
57.26764 63.000
57.30754 62.000
57.34744 61.000
57.38734 54.000
57.42724 55.000
57.46714 53.000
57.50703 51.000
57.54693 50.000
57.58683 39.000
57.62673 61.000
57.66663 44.000
57.70653 52.000
57.74643 52.000
57.78633 48.000
57.82623 61.000
57.86613 57.000
57.90602 53.000
57.94592 51.000
57.98582 53.000
58.02572 54.000
58.06562 62.000
58.10552 45.000
58.14542 43.000
58.18532 52.000
58.22522 58.000
58.26511 48.000
58.30501 56.000
58.34491 49.000
58.38481 56.000
58.42471 45.000
58.46461 43.000
58.50451 44.000
58.54441 47.000
58.58431 51.000
58.62421 52.000
58.66410 53.000
58.70400 45.000
58.74390 51.000
58.78380 44.000
58.82370 48.000
58.86360 62.000
58.90350 49.000
58.94340 42.000
58.98330 50.000
59.02320 68.000
59.06309 62.000
59.10299 48.000
59.14289 40.000
59.18279 51.000
59.22269 49.000
59.26259 72.000
59.30249 40.000
59.34239 46.000
59.38229 52.000
59.42218 50.000
59.46208 53.000
59.50198 54.000
59.54188 66.000
59.58178 44.000
59.62168 54.000
59.66158 48.000
59.70148 49.000
59.74138 52.000
59.78128 53.000
59.82117 57.000
59.86107 44.000
59.90097 56.000
59.94087 45.000
59.98077 60.000
60.02067 55.000
60.06057 56.000
60.10047 48.000
60.14037 54.000
60.18027 44.000
60.22016 53.000
60.26006 45.000
60.29996 51.000
60.33986 51.000
60.37976 45.000
60.41966 63.000
60.45956 49.000
60.49946 39.000
60.53936 46.000
60.57925 65.000
60.61915 63.000
60.65905 41.000
60.69895 45.000
60.73885 57.000
60.77875 58.000
60.81865 57.000
60.85855 65.000
60.89845 50.000
60.93835 60.000
60.97824 57.000
61.01814 48.000
61.05804 49.000
61.09794 50.000
61.13784 57.000
61.17774 49.000
61.21764 59.000
61.25754 46.000
61.29744 50.000
61.33734 57.000
61.37723 56.000
61.41713 58.000
61.45703 54.000
61.49693 60.000
61.53683 55.000
61.57673 72.000
61.61663 49.000
61.65653 58.000
61.69643 37.000
61.73632 57.000
61.77622 39.000
61.81612 47.000
61.85602 56.000
61.89592 54.000
61.93582 51.000
61.97572 49.000
62.01562 58.000
62.05552 54.000
62.09542 58.000
62.13531 35.000
62.17521 52.000
62.21511 50.000
62.25501 44.000
62.29491 61.000
62.33481 50.000
62.37471 41.000
62.41461 50.000
62.45451 45.000
62.49440 54.000
62.53430 46.000
62.57420 56.000
62.61410 38.000
62.65400 70.000
62.69390 51.000
62.73380 48.000
62.77370 51.000
62.81360 45.000
62.85350 56.000
62.89339 59.000
62.93329 51.000
62.97319 50.000
63.01309 58.000
63.05299 53.000
63.09289 45.000
63.13279 50.000
63.17269 52.000
63.21259 55.000
63.25249 50.000
63.29238 45.000
63.33228 52.000
63.37218 55.000
63.41208 51.000
63.45198 51.000
63.49188 47.000
63.53178 47.000
63.57168 72.000
63.61158 64.000
63.65147 44.000
63.69137 43.000
63.73127 53.000
63.77117 61.000
63.81107 49.000
63.85097 44.000
63.89087 41.000
63.93077 51.000
63.97067 50.000
64.01057 53.000
64.05046 35.000
64.09036 51.000
64.13026 64.000
64.17016 38.000
64.21006 48.000
64.24996 45.000
64.28986 57.000
64.32976 48.000
64.36966 55.000
64.40956 58.000
64.44945 58.000
64.48935 55.000
64.52925 38.000
64.56915 40.000
64.60905 62.000
64.64895 50.000
64.68885 48.000
64.72875 67.000
64.76865 46.000
64.80854 50.000
64.84844 54.000
64.88834 50.000
64.92824 60.000
64.96814 55.000
65.00804 48.000
65.04794 50.000
65.08784 44.000
65.12774 55.000
65.16764 48.000
65.20753 52.000
65.24743 46.000
65.28733 42.000
65.32723 52.000
65.36713 53.000
65.40703 57.000
65.44693 38.000
65.48683 47.000
65.52673 51.000
65.56663 62.000
65.60652 61.000
65.64642 45.000
65.68632 60.000
65.72622 56.000
65.76612 52.000
65.80602 58.000
65.84592 69.000
65.88582 61.000
65.92572 47.000
65.96561 50.000
66.00551 58.000
66.04541 57.000
66.08531 52.000
66.12521 50.000
66.16511 44.000
66.20501 60.000
66.24491 48.000
66.28481 46.000
66.32471 61.000
66.36460 52.000
66.40450 62.000
66.44440 43.000
66.48430 52.000
66.52420 54.000
66.56410 46.000
66.60400 54.000
66.64390 50.000
66.68380 53.000
66.72370 48.000
66.76359 50.000
66.80349 51.000
66.84339 55.000
66.88329 59.000
66.92319 55.000
66.96309 42.000
67.00299 43.000
67.04289 46.000
67.08279 64.000
67.12268 44.000
67.16258 44.000
67.20248 59.000
67.24238 46.000
67.28228 47.000
67.32218 38.000
67.36208 57.000
67.40198 51.000
67.44188 48.000
67.48178 55.000
67.52167 65.000
67.56157 46.000
67.60147 44.000
67.64137 48.000
67.68127 55.000
67.72117 52.000
67.76107 42.000
67.80097 55.000
67.84087 52.000
67.88076 50.000
67.92066 57.000
67.96056 52.000
68.00046 48.000
68.04036 43.000
68.08026 42.000
68.12016 54.000
68.16006 59.000
68.19996 45.000
68.23986 45.000
68.27975 42.000
68.31965 54.000
68.35955 45.000
68.39945 47.000
68.43935 45.000
68.47925 47.000
68.51915 38.000
68.55905 61.000
68.59895 50.000
68.63885 55.000
68.67874 37.000
68.71864 35.000
68.75854 36.000
68.79844 43.000
68.83834 50.000
68.87824 48.000
68.91814 50.000
68.95804 45.000
68.99794 47.000
69.03783 52.000
69.07773 60.000
69.11763 46.000
69.15753 51.000
69.19743 51.000
69.23733 35.000
69.27723 49.000
69.31713 51.000
69.35703 44.000
69.39693 51.000
69.43682 59.000
69.47672 53.000
69.51662 48.000
69.55652 49.000
69.59642 42.000
69.63632 34.000
69.67622 51.000
69.71612 46.000
69.75602 37.000
69.79592 44.000
69.83581 57.000
69.87571 53.000
69.91561 56.000
69.95551 53.000
69.99541 60.000
70.03531 43.000
70.07521 41.000
70.11511 43.000
70.15501 55.000
70.19490 50.000
70.23480 47.000
70.27470 40.000
70.31460 43.000
70.35450 37.000
70.39440 55.000
70.43430 49.000
70.47420 53.000
70.51410 44.000
70.55400 44.000
70.59389 47.000
70.63379 42.000
70.67369 37.000
70.71359 58.000
70.75349 35.000
70.79339 46.000
70.83329 49.000
70.87319 48.000
70.91309 47.000
70.95299 47.000
70.99288 42.000
71.03278 48.000
71.07268 64.000
71.11258 51.000
71.15248 44.000
71.19238 40.000
71.23228 44.000
71.27218 51.000
71.31208 48.000
71.35197 44.000
71.39187 47.000
71.43177 51.000
71.47167 52.000
71.51157 53.000
71.55147 49.000
71.59137 47.000
71.63127 50.000
71.67117 42.000
71.71107 47.000
71.75096 52.000
71.79086 45.000
71.83076 52.000
71.87066 41.000
71.91056 48.000
71.95046 40.000
71.99036 52.000
72.03026 41.000
72.07016 50.000
72.11005 41.000
72.14995 54.000
72.18985 44.000
72.22975 46.000
72.26965 41.000
72.30955 39.000
72.34945 53.000
72.38935 38.000
72.42925 60.000
72.46915 58.000
72.50904 44.000
72.54894 45.000
72.58884 60.000
72.62874 51.000
72.66864 47.000
72.70854 43.000
72.74844 39.000
72.78834 40.000
72.82824 42.000
72.86814 58.000
72.90803 48.000
72.94793 48.000
72.98783 39.000
73.02773 37.000
73.06763 47.000
73.10753 48.000
73.14743 47.000
73.18733 48.000
73.22723 42.000
73.26712 56.000
73.30702 45.000
73.34692 53.000
73.38682 58.000
73.42672 47.000
73.46662 43.000
73.50652 56.000
73.54642 43.000
73.58632 48.000
73.62622 47.000
73.66611 46.000
73.70601 53.000
73.74591 52.000
73.78581 57.000
73.82571 38.000
73.86561 35.000
73.90551 42.000
73.94541 51.000
73.98531 39.000
74.02521 45.000
74.06510 38.000
74.10500 47.000
74.14490 47.000
74.18480 51.000
74.22470 37.000
74.26460 53.000
74.30450 48.000
74.34440 54.000
74.38430 31.000
74.42419 45.000
74.46409 56.000
74.50399 48.000
74.54389 38.000
74.58379 54.000
74.62369 62.000
74.66359 44.000
74.70349 45.000
74.74339 53.000
74.78329 51.000
74.82318 39.000
74.86308 41.000
74.90298 54.000
74.94288 46.000
74.98278 38.000
75.02268 44.000
75.06258 48.000
75.10248 41.000
75.14238 54.000
75.18228 47.000
75.22217 41.000
75.26207 41.000
75.30197 61.000
75.34187 52.000
75.38177 43.000
75.42167 39.000
75.46157 45.000
75.50147 43.000
75.54137 43.000
75.58126 51.000
75.62116 37.000
75.66106 58.000
75.70096 57.000
75.74086 52.000
75.78076 49.000
75.82066 41.000
75.86056 35.000
75.90046 48.000
75.94036 55.000
75.98025 52.000
76.02015 44.000
76.06005 47.000
76.09995 42.000
76.13985 51.000
76.17975 42.000
76.21965 59.000
76.25955 53.000
76.29945 50.000
76.33934 46.000
76.37924 54.000
76.41914 43.000
76.45904 44.000
76.49894 54.000
76.53884 47.000
76.57874 49.000
76.61864 43.000
76.65854 50.000
76.69844 57.000
76.73833 46.000
76.77823 40.000
76.81813 51.000
76.85803 46.000
76.89793 54.000
76.93783 46.000
76.97773 50.000
77.01763 44.000
77.05753 57.000
77.09743 47.000
77.13732 42.000
77.17722 47.000
77.21712 48.000
77.25702 58.000
77.29692 54.000
77.33682 46.000
77.37672 43.000
77.41662 47.000
77.45652 46.000
77.49641 49.000
77.53631 45.000
77.57621 59.000
77.61611 42.000
77.65601 60.000
77.69591 39.000
77.73581 42.000
77.77571 46.000
77.81561 37.000
77.85551 52.000
77.89540 45.000
77.93530 53.000
77.97520 39.000
78.01510 40.000
78.05500 40.000
78.09490 54.000
78.13480 43.000
78.17470 53.000
78.21460 37.000
78.25450 39.000
78.29439 42.000
78.33429 50.000
78.37419 52.000
78.41409 47.000
78.45399 37.000
78.49389 40.000
78.53379 56.000
78.57369 46.000
78.61359 56.000
78.65348 46.000
78.69338 34.000
78.73328 35.000
78.77318 54.000
78.81308 46.000
78.85298 44.000
78.89288 42.000
78.93278 43.000
78.97268 56.000
79.01258 56.000
79.05247 47.000
79.09237 42.000
79.13227 36.000
79.17217 44.000
79.21207 48.000
79.25197 40.000
79.29187 44.000
79.33177 45.000
79.37167 49.000
79.41157 46.000
79.45146 50.000
79.49136 49.000
79.53126 48.000
79.57116 51.000
79.61106 30.000
79.65096 43.000
79.69086 49.000
79.73076 44.000
79.77066 44.000
79.81055 43.000
79.85045 39.000
79.89035 41.000
79.93025 48.000
79.97015 41.000
80.01005 46.000
80.04995 41.000
80.08985 50.000
80.12975 53.000
80.16965 59.000
80.20954 39.000
80.24944 57.000
80.28934 28.000
