5.00000 68.000
5.03990 85.000
5.07980 79.000
5.11970 71.000
5.15960 83.000
5.19949 76.000
5.23939 80.000
5.27929 67.000
5.31919 79.000
5.35909 76.000
5.39899 88.000
5.43889 82.000
5.47879 80.000
5.51869 87.000
5.55859 98.000
5.59848 70.000
5.63838 86.000
5.67828 84.000
5.71818 100.000
5.75808 85.000
5.79798 81.000
5.83788 65.000
5.87778 83.000
5.91768 101.000
5.95758 73.000
5.99747 106.000
6.03737 91.000
6.07727 87.000
6.11717 100.000
6.15707 84.000
6.19697 79.000
6.23687 86.000
6.27677 91.000
6.31667 93.000
6.35656 77.000
6.39646 94.000
6.43636 96.000
6.47626 95.000
6.51616 92.000
6.55606 95.000
6.59596 95.000
6.63586 91.000
6.67576 84.000
6.71566 92.000
6.75555 112.000
6.79545 90.000
6.83535 94.000
6.87525 103.000
6.91515 115.000
6.95505 100.000
6.99495 101.000
7.03485 103.000
7.07475 90.000
7.11465 118.000
7.15454 94.000
7.19444 95.000
7.23434 115.000
7.27424 103.000
7.31414 95.000
7.35404 112.000
7.39394 90.000
7.43384 101.000
7.47374 115.000
7.51363 100.000
7.55353 124.000
7.59343 92.000
7.63333 107.000
7.67323 98.000
7.71313 112.000
7.75303 101.000
7.79293 90.000
7.83283 103.000
7.87273 123.000
7.91262 93.000
7.95252 111.000
7.99242 97.000
8.03232 107.000
8.07222 111.000
8.11212 108.000
8.15202 101.000
8.19192 117.000
8.23182 110.000
8.27171 111.000
8.31161 97.000
8.35151 108.000
8.39141 105.000
8.43131 106.000
8.47121 117.000
8.51111 103.000
8.55101 126.000
8.59091 103.000
8.63081 118.000
8.67070 113.000
8.71060 115.000
8.75050 122.000
8.79040 92.000
8.83030 127.000
8.87020 103.000
8.91010 116.000
8.95000 124.000
8.98990 120.000
9.02980 111.000
9.06969 128.000
9.10959 118.000
9.14949 115.000
9.18939 121.000
9.22929 103.000
9.26919 110.000
9.30909 121.000
9.34899 125.000
9.38889 106.000
9.42878 129.000
9.46868 121.000
9.50858 124.000
9.54848 123.000
9.58838 129.000
9.62828 116.000
9.66818 116.000
9.70808 97.000
9.74798 103.000
9.78788 106.000
9.82777 120.000
9.86767 132.000
9.90757 121.000
9.94747 124.000
9.98737 130.000
10.02727 137.000
10.06717 114.000
10.10707 111.000
10.14697 117.000
10.18687 124.000
10.22676 157.000
10.26666 149.000
10.30656 124.000
10.34646 115.000
10.38636 134.000
10.42626 111.000
10.46616 130.000
10.50606 121.000
10.54596 149.000
10.58585 147.000
10.62575 137.000
10.66565 116.000
10.70555 105.000
10.74545 131.000
10.78535 132.000
10.82525 125.000
10.86515 167.000
10.90505 126.000
10.94495 146.000
10.98484 129.000
11.02474 135.000
11.06464 114.000
11.10454 123.000
11.14444 107.000
11.18434 129.000
11.22424 125.000
11.26414 131.000
11.30404 131.000
11.34394 134.000
11.38383 119.000
11.42373 138.000
11.46363 97.000
11.50353 116.000
11.54343 144.000
11.58333 107.000
11.62323 131.000
11.66313 115.000
11.70303 139.000
11.74292 135.000
11.78282 139.000
11.82272 129.000
11.86262 127.000
11.90252 123.000
11.94242 129.000
11.98232 123.000
12.02222 131.000
12.06212 131.000
12.10202 134.000
12.14191 113.000
12.18181 140.000
12.22171 154.000
12.26161 136.000
12.30151 137.000
12.34141 126.000
12.38131 117.000
12.42121 137.000
12.46111 137.000
12.50100 148.000
12.54090 132.000
12.58080 138.000
12.62070 138.000
12.66060 135.000
12.70050 145.000
12.74040 145.000
12.78030 126.000
12.82020 120.000
12.86010 131.000
12.89999 148.000
12.93989 133.000
12.97979 152.000
13.01969 133.000
13.05959 128.000
13.09949 133.000
13.13939 133.000
13.17929 159.000
13.21919 134.000
13.25909 142.000
13.29898 112.000
13.33888 126.000
13.37878 138.000
13.41868 140.000
13.45858 131.000
13.49848 138.000
13.53838 128.000
13.57828 140.000
13.61818 126.000
13.65807 127.000
13.69797 136.000
13.73787 141.000
13.77777 121.000
13.81767 141.000
13.85757 125.000
13.89747 137.000
13.93737 139.000
13.97727 148.000
14.01717 121.000
14.05706 133.000
14.09696 117.000
14.13686 123.000
14.17676 131.000
14.21666 114.000
14.25656 120.000
14.29646 143.000
14.33636 141.000
14.37626 125.000
14.41616 133.000
14.45605 131.000
14.49595 127.000
14.53585 133.000
14.57575 146.000
14.61565 122.000
14.65555 133.000
14.69545 134.000
14.73535 141.000
14.77525 130.000
14.81514 146.000
14.85504 128.000
14.89494 151.000
14.93484 140.000
14.97474 123.000
15.01464 143.000
15.05454 155.000
15.09444 139.000
15.13434 133.000
15.17424 131.000
15.21413 119.000
15.25403 146.000
15.29393 139.000
15.33383 126.000
15.37373 162.000
15.41363 108.000
15.45353 144.000
15.49343 154.000
15.53333 154.000
15.57323 134.000
15.61312 129.000
15.65302 139.000
15.69292 136.000
15.73282 163.000
15.77272 156.000
15.81262 150.000
15.85252 142.000
15.89242 139.000
15.93232 140.000
15.97221 136.000
16.01211 149.000
16.05201 144.000
16.09191 154.000
16.13181 144.000
16.17171 138.000
16.21161 136.000
16.25151 151.000
16.29141 143.000
16.33131 162.000
16.37120 156.000
16.41110 147.000
16.45100 145.000
16.49090 166.000
16.53080 141.000
16.57070 154.000
16.61060 154.000
16.65050 159.000
16.69040 154.000
16.73029 155.000
16.77019 154.000
16.81009 155.000
16.84999 150.000
16.88989 174.000
16.92979 151.000
16.96969 143.000
17.00959 189.000
17.04949 165.000
17.08939 143.000
17.12928 148.000
17.16918 139.000
17.20908 161.000
17.24898 161.000
17.28888 142.000
17.32878 172.000
17.36868 164.000
17.40858 207.000
17.44848 129.000
17.48838 164.000
17.52827 159.000
17.56817 167.000
17.60807 178.000
17.64797 169.000
17.68787 174.000
17.72777 163.000
17.76767 165.000
17.80757 166.000
17.84747 174.000
17.88736 169.000
17.92726 170.000
17.96716 173.000
18.00706 187.000
18.04696 169.000
18.08686 179.000
18.12676 163.000
18.16666 178.000
18.20656 165.000
18.24646 173.000
18.28635 181.000
18.32625 180.000
18.36615 167.000
18.40605 202.000
18.44595 192.000
18.48585 167.000
18.52575 197.000
18.56565 174.000
18.60555 172.000
18.64545 161.000
18.68534 204.000
18.72524 172.000
18.76514 201.000
18.80504 174.000
18.84494 188.000
18.88484 182.000
18.92474 196.000
18.96464 188.000
19.00454 206.000
19.04443 208.000
19.08433 201.000
19.12423 198.000
19.16413 183.000
19.20403 189.000
19.24393 170.000
19.28383 198.000
19.32373 189.000
19.36363 213.000
19.40353 184.000
19.44342 204.000
19.48332 197.000
19.52322 207.000
19.56312 194.000
19.60302 218.000
19.64292 201.000
19.68282 214.000
19.72272 215.000
19.76262 217.000
19.80252 226.000
19.84241 194.000
19.88231 206.000
19.92221 234.000
19.96211 188.000
20.00201 221.000
20.04191 221.000
20.08181 197.000
20.12171 179.000
20.16161 207.000
20.20150 218.000
20.24140 202.000
20.28130 225.000
20.32120 239.000
20.36110 185.000
20.40100 212.000
20.44090 207.000
20.48080 198.000
20.52070 183.000
20.56060 216.000
20.60049 213.000
20.64039 231.000
20.68029 223.000
20.72019 222.000
20.76009 243.000
20.79999 239.000
20.83989 215.000
20.87979 222.000
20.91969 226.000
20.95959 229.000
20.99948 214.000
21.03938 258.000
21.07928 218.000
21.11918 229.000
21.15908 218.000
21.19898 216.000
21.23888 228.000
21.27878 230.000
21.31868 223.000
21.35857 220.000
21.39847 246.000
21.43837 264.000
21.47827 234.000
21.51817 218.000
21.55807 221.000
21.59797 261.000
21.63787 230.000
21.67777 227.000
21.71767 214.000
21.75756 236.000
21.79746 231.000
21.83736 227.000
21.87726 226.000
21.91716 230.000
21.95706 205.000
21.99696 225.000
22.03686 222.000
22.07676 244.000
22.11665 256.000
22.15655 224.000
22.19645 206.000
22.23635 216.000
22.27625 238.000
22.31615 261.000
22.35605 219.000
22.39595 233.000
22.43585 228.000
22.47575 228.000
22.51564 218.000
22.55554 240.000
22.59544 187.000
22.63534 238.000
22.67524 229.000
22.71514 173.000
22.75504 222.000
22.79494 214.000
22.83484 229.000
22.87474 213.000
22.91463 214.000
22.95453 211.000
22.99443 197.000
23.03433 236.000
23.07423 213.000
23.11413 220.000
23.15403 196.000
23.19393 197.000
23.23383 219.000
23.27372 205.000
23.31362 216.000
23.35352 226.000
23.39342 221.000
23.43332 207.000
23.47322 216.000
23.51312 220.000
23.55302 209.000
23.59292 191.000
23.63282 179.000
23.67271 200.000
23.71261 196.000
23.75251 213.000
23.79241 236.000
23.83231 205.000
23.87221 210.000
23.91211 201.000
23.95201 197.000
23.99191 230.000
24.03181 196.000
24.07170 196.000
24.11160 178.000
24.15150 195.000
24.19140 203.000
24.23130 201.000
24.27120 192.000
24.31110 196.000
24.35100 181.000
24.39090 204.000
24.43079 196.000
24.47069 208.000
24.51059 193.000
24.55049 188.000
24.59039 185.000
24.63029 205.000
24.67019 190.000
24.71009 194.000
24.74999 204.000
24.78989 180.000
24.82978 187.000
24.86968 197.000
24.90958 176.000
24.94948 172.000
24.98938 185.000
25.02928 189.000
25.06918 187.000
25.10908 184.000
25.14898 175.000
25.18888 193.000
25.22877 179.000
25.26867 183.000
25.30857 177.000
25.34847 192.000
25.38837 180.000
25.42827 182.000
25.46817 196.000
25.50807 192.000
25.54797 183.000
25.58786 167.000
25.62776 171.000
25.66766 171.000
25.70756 172.000
25.74746 183.000
25.78736 176.000
25.82726 199.000
25.86716 169.000
25.90706 173.000
25.94696 173.000
25.98685 168.000
26.02675 158.000
26.06665 151.000
26.10655 176.000
26.14645 148.000
26.18635 168.000
26.22625 182.000
26.26615 179.000
26.30605 184.000
26.34594 177.000
26.38584 183.000
26.42574 141.000
26.46564 149.000
26.50554 167.000
26.54544 173.000
26.58534 167.000
26.62524 147.000
26.66514 162.000
26.70504 167.000
26.74493 175.000
26.78483 166.000
26.82473 155.000
26.86463 161.000
26.90453 147.000
26.94443 187.000
26.98433 141.000
27.02423 164.000
27.06413 159.000
27.10403 151.000
27.14392 165.000
27.18382 138.000
27.22372 170.000
27.26362 201.000
27.30352 169.000
27.34342 160.000
27.38332 166.000
27.42322 153.000
27.46312 146.000
27.50301 180.000
27.54291 168.000
27.58281 167.000
27.62271 162.000
27.66261 170.000
27.70251 162.000
27.74241 161.000
27.78231 165.000
27.82221 156.000
27.86211 159.000
27.90200 186.000
27.94190 160.000
27.98180 176.000
28.02170 172.000
28.06160 148.000
28.10150 142.000
28.14140 171.000
28.18130 150.000
28.22120 159.000
28.26110 147.000
28.30099 140.000
28.34089 159.000
28.38079 176.000
28.42069 165.000
28.46059 157.000
28.50049 159.000
28.54039 140.000
28.58029 140.000
28.62019 137.000
28.66008 149.000
28.69998 125.000
28.73988 150.000
28.77978 134.000
28.81968 121.000
28.85958 160.000
28.89948 155.000
28.93938 134.000
28.97928 140.000
29.01918 182.000
29.05907 150.000
29.09897 163.000
29.13887 147.000
29.17877 149.000
29.21867 129.000
29.25857 168.000
29.29847 148.000
29.33837 155.000
29.37827 177.000
29.41817 135.000
29.45806 173.000
29.49796 131.000
29.53786 154.000
29.57776 134.000
29.61766 147.000
29.65756 157.000
29.69746 157.000
29.73736 149.000
29.77726 154.000
29.81715 156.000
29.85705 154.000
29.89695 180.000
29.93685 166.000
29.97675 178.000
30.01665 166.000
30.05655 167.000
30.09645 155.000
30.13635 140.000
30.17625 135.000
30.21614 146.000
30.25604 159.000
30.29594 155.000
30.33584 159.000
30.37574 142.000
30.41564 131.000
30.45554 125.000
30.49544 156.000
30.53534 147.000
30.57523 143.000
30.61513 172.000
30.65503 133.000
30.69493 134.000
30.73483 132.000
30.77473 142.000
30.81463 126.000
30.85453 132.000
30.89443 157.000
30.93433 140.000
30.97422 146.000
31.01412 116.000
31.05402 142.000
31.09392 136.000
31.13382 152.000
31.17372 175.000
31.21362 124.000
31.25352 141.000
31.29342 125.000
31.33332 150.000
31.37321 136.000
31.41311 147.000
31.45301 147.000
31.49291 138.000
31.53281 154.000
31.57271 112.000
31.61261 157.000
31.65251 132.000
31.69241 153.000
31.73230 126.000
31.77220 119.000
31.81210 155.000
31.85200 135.000
31.89190 163.000
31.93180 153.000
31.97170 142.000
32.01160 159.000
32.05150 155.000
32.09140 140.000
32.13129 130.000
32.17119 168.000
32.21109 146.000
32.25099 152.000
32.29089 145.000
32.33079 131.000
32.37069 150.000
32.41059 139.000
32.45049 155.000
32.49039 137.000
32.53028 170.000
32.57018 142.000
32.61008 152.000
32.64998 139.000
32.68988 162.000
32.72978 150.000
32.76968 164.000
32.80958 189.000
32.84948 190.000
32.88937 168.000
32.92927 186.000
32.96917 199.000
33.00907 187.000
33.04897 155.000
33.08887 181.000
33.12877 159.000
33.16867 156.000
33.20857 154.000
33.24847 172.000
33.28836 146.000
33.32826 142.000
33.36816 138.000
33.40806 131.000
33.44796 121.000
33.48786 164.000
33.52776 146.000
33.56766 118.000
33.60756 133.000
33.64746 137.000
33.68735 127.000
33.72725 135.000
33.76715 122.000
33.80705 137.000
33.84695 132.000
33.88685 129.000
33.92675 140.000
33.96665 119.000
34.00655 156.000
34.04644 126.000
34.08634 141.000
34.12624 136.000
34.16614 116.000
34.20604 119.000
34.24594 131.000
34.28584 135.000
34.32574 139.000
34.36564 128.000
34.40554 142.000
34.44543 135.000
34.48533 139.000
34.52523 150.000
34.56513 138.000
34.60503 118.000
34.64493 143.000
34.68483 132.000
34.72473 151.000
34.76463 132.000
34.80453 136.000
34.84442 145.000
34.88432 138.000
34.92422 145.000
34.96412 129.000
35.00402 160.000
35.04392 119.000
35.08382 138.000
35.12372 156.000
35.16362 152.000
35.20351 138.000
35.24341 143.000
35.28331 139.000
35.32321 145.000
35.36311 142.000
35.40301 125.000
35.44291 145.000
35.48281 144.000
35.52271 155.000
35.56261 156.000
35.60250 165.000
35.64240 127.000
35.68230 135.000
35.72220 133.000
35.76210 139.000
35.80200 128.000
35.84190 142.000
35.88180 131.000
35.92170 123.000
35.96159 123.000
36.00149 118.000
36.04139 120.000
36.08129 139.000
36.12119 141.000
36.16109 139.000
36.20099 161.000
36.24089 124.000
36.28079 123.000
36.32069 131.000
36.36058 139.000
36.40048 128.000
36.44038 135.000
36.48028 148.000
36.52018 151.000
36.56008 128.000
36.59998 117.000
36.63988 161.000
36.67978 160.000
36.71968 161.000
36.75957 125.000
36.79947 121.000
36.83937 130.000
36.87927 134.000
36.91917 130.000
36.95907 137.000
36.99897 122.000
37.03887 121.000
37.07877 126.000
37.11866 143.000
37.15856 126.000
37.19846 146.000
37.23836 127.000
37.27826 116.000
37.31816 120.000
37.35806 132.000
37.39796 126.000
37.43786 131.000
37.47776 123.000
37.51765 139.000
37.55755 137.000
37.59745 124.000
37.63735 137.000
37.67725 127.000
37.71715 136.000
37.75705 148.000
37.79695 120.000
37.83685 135.000
37.87675 139.000
37.91664 147.000
37.95654 117.000
37.99644 140.000
38.03634 127.000
38.07624 128.000
38.11614 128.000
38.15604 122.000
38.19594 111.000
38.23584 125.000
38.27573 113.000
38.31563 125.000
38.35553 120.000
38.39543 115.000
38.43533 125.000
38.47523 126.000
38.51513 114.000
38.55503 126.000
38.59493 134.000
38.63483 103.000
38.67472 137.000
38.71462 115.000
38.75452 101.000
38.79442 120.000
38.83432 149.000
38.87422 94.000
38.91412 117.000
38.95402 95.000
38.99392 121.000
39.03382 117.000
39.07371 130.000
39.11361 110.000
39.15351 133.000
39.19341 110.000
39.23331 108.000
39.27321 120.000
39.31311 128.000
39.35301 107.000
39.39291 109.000
39.43280 130.000
39.47270 128.000
39.51260 112.000
39.55250 137.000
39.59240 132.000
39.63230 106.000
39.67220 126.000
39.71210 138.000
39.75200 125.000
39.79190 129.000
39.83179 144.000
39.87169 127.000
39.91159 139.000
39.95149 119.000
39.99139 124.000
40.03129 123.000
40.07119 125.000
40.11109 146.000
40.15099 136.000
40.19088 144.000
40.23078 124.000
40.27068 130.000
40.31058 109.000
40.35048 115.000
40.39038 128.000
40.43028 116.000
40.47018 113.000
40.51008 128.000
40.54998 133.000
40.58987 119.000
40.62977 133.000
40.66967 119.000
40.70957 115.000
40.74947 128.000
40.78937 123.000
40.82927 134.000
40.86917 132.000
40.90907 121.000
40.94897 107.000
40.98886 124.000
41.02876 138.000
41.06866 125.000
41.10856 141.000
41.14846 119.000
41.18836 133.000
41.22826 131.000
41.26816 110.000
41.30806 141.000
41.34795 114.000
41.38785 109.000
41.42775 126.000
41.46765 112.000
41.50755 120.000
41.54745 123.000
41.58735 129.000
41.62725 115.000
41.66715 119.000
41.70705 137.000
41.74694 112.000
41.78684 123.000
41.82674 115.000
41.86664 118.000
41.90654 126.000
41.94644 136.000
41.98634 131.000
42.02624 129.000
42.06614 127.000
42.10604 118.000
42.14593 124.000
42.18583 125.000
42.22573 112.000
42.26563 134.000
42.30553 142.000
42.34543 104.000
42.38533 129.000
42.42523 127.000
42.46513 101.000
42.50502 112.000
42.54492 127.000
42.58482 125.000
42.62472 113.000
42.66462 107.000
42.70452 119.000
42.74442 103.000
42.78432 125.000
42.82422 106.000
42.86412 126.000
42.90401 125.000
42.94391 110.000
42.98381 130.000
43.02371 115.000
43.06361 138.000
43.10351 115.000
43.14341 124.000
43.18331 123.000
43.22321 113.000
43.26311 108.000
43.30300 123.000
43.34290 129.000
43.38280 121.000
43.42270 107.000
43.46260 117.000
43.50250 101.000
43.54240 111.000
43.58230 121.000
43.62220 114.000
43.66209 128.000
43.70199 127.000
43.74189 131.000
43.78179 104.000
43.82169 123.000
43.86159 121.000
43.90149 121.000
43.94139 109.000
43.98129 119.000
44.02119 130.000
44.06108 102.000
44.10098 122.000
44.14088 106.000
44.18078 125.000
44.22068 125.000
44.26058 122.000
44.30048 108.000
44.34038 130.000
44.38028 129.000
44.42017 106.000
44.46007 113.000
44.49997 113.000
44.53987 121.000
44.57977 124.000
44.61967 127.000
44.65957 115.000
44.69947 121.000
44.73937 123.000
44.77927 112.000
44.81916 129.000
44.85906 122.000
44.89896 119.000
44.93886 109.000
44.97876 115.000
45.01866 110.000
45.05856 120.000
45.09846 106.000
45.13836 113.000
45.17826 123.000
45.21815 126.000
45.25805 131.000
45.29795 140.000
45.33785 120.000
45.37775 137.000
45.41765 122.000
45.45755 135.000
45.49745 126.000
45.53735 126.000
45.57724 129.000
45.61714 147.000
45.65704 135.000
45.69694 117.000
45.73684 151.000
45.77674 121.000
45.81664 129.000
45.85654 124.000
45.89644 97.000
45.93634 109.000
45.97623 93.000
46.01613 126.000
46.05603 124.000
46.09593 100.000
46.13583 119.000
46.17573 109.000
46.21563 104.000
46.25553 124.000
46.29543 122.000
46.33533 124.000
46.37522 114.000
46.41512 102.000
46.45502 105.000
46.49492 114.000
46.53482 116.000
46.57472 143.000
46.61462 109.000
46.65452 128.000
46.69442 110.000
46.73431 128.000
46.77421 123.000
46.81411 110.000
46.85401 123.000
46.89391 142.000
46.93381 130.000
46.97371 113.000
47.01361 112.000
47.05351 122.000
47.09341 119.000
47.13330 114.000
47.17320 108.000
47.21310 116.000
47.25300 131.000
47.29290 115.000
47.33280 104.000
47.37270 118.000
47.41260 112.000
47.45250 106.000
47.49240 94.000
47.53229 116.000
47.57219 138.000
47.61209 102.000
47.65199 119.000
47.69189 122.000
47.73179 145.000
47.77169 132.000
47.81159 113.000
47.85149 120.000
47.89138 121.000
47.93128 98.000
47.97118 119.000
48.01108 114.000
48.05098 109.000
48.09088 117.000
48.13078 107.000
48.17068 109.000
48.21058 101.000
48.25048 100.000
48.29037 116.000
48.33027 118.000
48.37017 123.000
48.41007 109.000
48.44997 108.000
48.48987 124.000
48.52977 104.000
48.56967 139.000
48.60957 110.000
48.64946 115.000
48.68936 123.000
48.72926 109.000
48.76916 106.000
48.80906 112.000
48.84896 132.000
48.88886 113.000
48.92876 119.000
48.96866 109.000
49.00856 101.000
49.04845 104.000
49.08835 109.000
49.12825 118.000
49.16815 111.000
49.20805 135.000
49.24795 135.000
49.28785 125.000
49.32775 119.000
49.36765 142.000
49.40755 135.000
49.44744 126.000
49.48734 132.000
49.52724 109.000
49.56714 122.000
49.60704 128.000
49.64694 108.000
49.68684 122.000
49.72674 135.000
49.76664 135.000
49.80653 133.000
49.84643 117.000
49.88633 117.000
49.92623 119.000
49.96613 132.000
50.00603 104.000
50.04593 114.000
50.08583 140.000
50.12573 116.000
50.16563 112.000
50.20552 128.000
50.24542 120.000
50.28532 129.000
50.32522 130.000
50.36512 109.000
50.40502 107.000
50.44492 129.000
50.48482 125.000
50.52472 89.000
50.56462 114.000
50.60451 118.000
50.64441 126.000
50.68431 126.000
50.72421 114.000
50.76411 112.000
50.80401 94.000
50.84391 117.000
50.88381 111.000
50.92371 118.000
50.96360 100.000
51.00350 130.000
51.04340 92.000
51.08330 94.000
51.12320 113.000
51.16310 129.000
51.20300 131.000
51.24290 101.000
51.28280 115.000
51.32270 129.000
51.36259 109.000
51.40249 101.000
51.44239 124.000
51.48229 111.000
51.52219 114.000
51.56209 123.000
51.60199 117.000
51.64189 106.000
51.68179 108.000
51.72169 115.000
51.76158 100.000
51.80148 89.000
51.84138 123.000
51.88128 130.000
51.92118 107.000
51.96108 130.000
52.00098 112.000
52.04088 126.000
52.08078 113.000
52.12067 104.000
52.16057 99.000
52.20047 122.000
52.24037 112.000
52.28027 96.000
52.32017 113.000
52.36007 106.000
52.39997 122.000
52.43987 115.000
52.47977 99.000
52.51966 109.000
52.55956 116.000
52.59946 119.000
52.63936 133.000
52.67926 116.000
52.71916 113.000
52.75906 136.000
52.79896 133.000
52.83886 109.000
52.87876 98.000
52.91865 143.000
52.95855 122.000
52.99845 114.000
53.03835 116.000
53.07825 120.000
53.11815 116.000
53.15805 114.000
53.19795 122.000
53.23785 87.000
53.27774 128.000
53.31764 130.000
53.35754 112.000
53.39744 112.000
53.43734 128.000
53.47724 135.000
53.51714 132.000
53.55704 126.000
53.59694 120.000
53.63684 117.000
53.67673 113.000
53.71663 111.000
53.75653 134.000
53.79643 117.000
53.83633 123.000
53.87623 101.000
53.91613 125.000
53.95603 132.000
53.99593 141.000
54.03582 130.000
54.07572 122.000
54.11562 107.000
54.15552 116.000
54.19542 107.000
54.23532 111.000
54.27522 117.000
54.31512 96.000
54.35502 111.000
54.39492 103.000
54.43481 113.000
54.47471 105.000
54.51461 123.000
54.55451 119.000
54.59441 119.000
54.63431 105.000
54.67421 104.000
54.71411 132.000
54.75401 130.000
54.79391 123.000
54.83380 107.000
54.87370 118.000
54.91360 106.000
54.95350 126.000
54.99340 117.000
55.03330 106.000
55.07320 98.000
55.11310 97.000
55.15300 108.000
55.19289 99.000
55.23279 135.000
55.27269 104.000
55.31259 126.000
55.35249 115.000
55.39239 122.000
55.43229 122.000
55.47219 125.000
55.51209 107.000
55.55199 108.000
55.59188 112.000
55.63178 127.000
55.67168 93.000
55.71158 106.000
55.75148 120.000
55.79138 135.000
55.83128 114.000
55.87118 119.000
55.91108 122.000
55.95098 136.000
55.99087 108.000
56.03077 121.000
56.07067 107.000
56.11057 118.000
56.15047 125.000
56.19037 108.000
56.23027 98.000
56.27017 113.000
56.31007 114.000
56.34996 116.000
56.38986 113.000
56.42976 110.000
56.46966 125.000
56.50956 112.000
56.54946 122.000
56.58936 117.000
56.62926 108.000
56.66916 109.000
56.70906 97.000
56.74895 114.000
56.78885 110.000
56.82875 116.000
56.86865 116.000
56.90855 118.000
56.94845 122.000
56.98835 119.000
57.02825 121.000
57.06815 128.000
57.10805 112.000
57.14794 122.000
57.18784 126.000
57.22774 120.000
57.26764 114.000
57.30754 110.000
57.34744 97.000
57.38734 116.000
57.42724 120.000
57.46714 142.000
57.50703 135.000
57.54693 95.000
57.58683 110.000
57.62673 112.000
57.66663 129.000
57.70653 102.000
57.74643 108.000
57.78633 116.000
57.82623 101.000
57.86613 113.000
57.90602 106.000
57.94592 108.000
57.98582 111.000
58.02572 133.000
58.06562 117.000
58.10552 130.000
58.14542 104.000
58.18532 118.000
58.22522 120.000
58.26511 84.000
58.30501 125.000
58.34491 110.000
58.38481 118.000
58.42471 118.000
58.46461 113.000
58.50451 118.000
58.54441 123.000
58.58431 136.000
58.62421 126.000
58.66410 140.000
58.70400 130.000
58.74390 115.000
58.78380 113.000
58.82370 115.000
58.86360 105.000
58.90350 99.000
58.94340 108.000
58.98330 111.000
59.02320 114.000
59.06309 108.000
59.10299 112.000
59.14289 131.000
59.18279 115.000
59.22269 121.000
59.26259 94.000
59.30249 114.000
59.34239 104.000
59.38229 110.000
59.42218 121.000
59.46208 123.000
59.50198 111.000
59.54188 114.000
59.58178 115.000
59.62168 107.000
59.66158 96.000
59.70148 110.000
59.74138 126.000
59.78128 105.000
59.82117 121.000
59.86107 116.000
59.90097 114.000
59.94087 126.000
59.98077 104.000
60.02067 127.000
60.06057 118.000
60.10047 108.000
60.14037 109.000
60.18027 118.000
60.22016 102.000
60.26006 112.000
60.29996 126.000
60.33986 108.000
60.37976 114.000
60.41966 120.000
60.45956 126.000
60.49946 114.000
60.53936 92.000
60.57925 110.000
60.61915 108.000
60.65905 128.000
60.69895 121.000
60.73885 137.000
60.77875 127.000
60.81865 106.000
60.85855 131.000
60.89845 126.000
60.93835 116.000
60.97824 142.000
61.01814 123.000
61.05804 122.000
61.09794 151.000
61.13784 125.000
61.17774 145.000
61.21764 107.000
61.25754 139.000
61.29744 117.000
61.33734 113.000
61.37723 131.000
61.41713 125.000
61.45703 133.000
61.49693 118.000
61.53683 138.000
61.57673 104.000
61.61663 117.000
61.65653 102.000
61.69643 119.000
61.73632 115.000
61.77622 109.000
61.81612 126.000
61.85602 109.000
61.89592 116.000
61.93582 122.000
61.97572 120.000
62.01562 136.000
62.05552 115.000
62.09542 118.000
62.13531 101.000
62.17521 110.000
62.21511 109.000
62.25501 114.000
62.29491 115.000
62.33481 123.000
62.37471 112.000
62.41461 128.000
62.45451 107.000
62.49440 135.000
62.53430 119.000
62.57420 133.000
62.61410 129.000
62.65400 135.000
62.69390 117.000
62.73380 124.000
62.77370 123.000
62.81360 147.000
62.85350 119.000
62.89339 112.000
62.93329 103.000
62.97319 129.000
63.01309 128.000
63.05299 123.000
63.09289 125.000
63.13279 107.000
63.17269 137.000
63.21259 125.000
63.25249 129.000
63.29238 123.000
63.33228 138.000
63.37218 130.000
63.41208 109.000
63.45198 135.000
63.49188 130.000
63.53178 114.000
63.57168 124.000
63.61158 118.000
63.65147 131.000
63.69137 109.000
63.73127 131.000
63.77117 110.000
63.81107 123.000
63.85097 136.000
63.89087 122.000
63.93077 106.000
63.97067 135.000
64.01057 140.000
64.05046 120.000
64.09036 139.000
64.13026 106.000
64.17016 122.000
64.21006 110.000
64.24996 121.000
64.28986 100.000
64.32976 141.000
64.36966 120.000
64.40956 134.000
64.44945 116.000
64.48935 142.000
64.52925 106.000
64.56915 117.000
64.60905 109.000
64.64895 121.000
64.68885 108.000
64.72875 108.000
64.76865 119.000
64.80854 131.000
64.84844 131.000
64.88834 121.000
64.92824 127.000
64.96814 106.000
65.00804 93.000
65.04794 130.000
65.08784 130.000
65.12774 120.000
65.16764 105.000
65.20753 115.000
65.24743 96.000
65.28733 126.000
65.32723 106.000
65.36713 116.000
65.40703 121.000
65.44693 122.000
65.48683 94.000
65.52673 116.000
65.56663 112.000
65.60652 127.000
65.64642 119.000
65.68632 119.000
65.72622 119.000
65.76612 116.000
65.80602 112.000
65.84592 118.000
65.88582 124.000
65.92572 119.000
65.96561 113.000
66.00551 101.000
66.04541 113.000
66.08531 137.000
66.12521 112.000
66.16511 105.000
66.20501 118.000
66.24491 120.000
66.28481 137.000
66.32471 112.000
66.36460 119.000
66.40450 109.000
66.44440 116.000
66.48430 114.000
66.52420 109.000
66.56410 114.000
66.60400 100.000
66.64390 123.000
66.68380 112.000
66.72370 114.000
66.76359 113.000
66.80349 128.000
66.84339 124.000
66.88329 105.000
66.92319 120.000
66.96309 117.000
67.00299 109.000
67.04289 111.000
67.08279 131.000
67.12268 116.000
67.16258 131.000
67.20248 118.000
67.24238 121.000
67.28228 126.000
67.32218 121.000
67.36208 112.000
67.40198 109.000
67.44188 124.000
67.48178 109.000
67.52167 114.000
67.56157 118.000
67.60147 119.000
67.64137 105.000
67.68127 125.000
67.72117 133.000
67.76107 123.000
67.80097 116.000
67.84087 128.000
67.88076 116.000
67.92066 136.000
67.96056 117.000
68.00046 123.000
68.04036 125.000
68.08026 87.000
68.12016 117.000
68.16006 115.000
68.19996 112.000
68.23986 98.000
68.27975 99.000
68.31965 103.000
68.35955 107.000
68.39945 129.000
68.43935 121.000
68.47925 116.000
68.51915 113.000
68.55905 108.000
68.59895 113.000
68.63885 113.000
68.67874 117.000
68.71864 104.000
68.75854 122.000
68.79844 119.000
68.83834 109.000
68.87824 126.000
68.91814 113.000
68.95804 95.000
68.99794 133.000
69.03783 132.000
69.07773 115.000
69.11763 147.000
69.15753 138.000
69.19743 122.000
69.23733 110.000
69.27723 114.000
69.31713 121.000
69.35703 115.000
69.39693 114.000
69.43682 111.000
69.47672 119.000
69.51662 112.000
69.55652 116.000
69.59642 82.000
69.63632 114.000
69.67622 116.000
69.71612 109.000
69.75602 107.000
69.79592 120.000
69.83581 107.000
69.87571 102.000
69.91561 103.000
69.95551 98.000
69.99541 109.000
70.03531 108.000
70.07521 111.000
70.11511 119.000
70.15501 122.000
70.19490 124.000
70.23480 109.000
70.27470 118.000
70.31460 105.000
70.35450 95.000
70.39440 113.000
70.43430 110.000
70.47420 103.000
70.51410 107.000
70.55400 117.000
70.59389 105.000
70.63379 118.000
70.67369 123.000
70.71359 111.000
70.75349 88.000
70.79339 79.000
70.83329 101.000
70.87319 121.000
70.91309 116.000
70.95299 110.000
70.99288 104.000
71.03278 107.000
71.07268 112.000
71.11258 108.000
71.15248 116.000
71.19238 117.000
71.23228 114.000
71.27218 98.000
71.31208 109.000
71.35197 106.000
71.39187 113.000
71.43177 121.000
71.47167 96.000
71.51157 109.000
71.55147 116.000
71.59137 115.000
71.63127 104.000
71.67117 111.000
71.71107 110.000
71.75096 110.000
71.79086 112.000
71.83076 117.000
71.87066 109.000
71.91056 120.000
71.95046 110.000
71.99036 117.000
72.03026 115.000
72.07016 96.000
72.11005 113.000
72.14995 100.000
72.18985 112.000
72.22975 100.000
72.26965 99.000
72.30955 111.000
72.34945 106.000
72.38935 102.000
72.42925 82.000
72.46915 107.000
72.50904 106.000
72.54894 120.000
72.58884 133.000
72.62874 95.000
72.66864 108.000
72.70854 121.000
72.74844 100.000
72.78834 121.000
72.82824 119.000
72.86814 94.000
72.90803 104.000
72.94793 97.000
72.98783 115.000
73.02773 114.000
73.06763 116.000
73.10753 106.000
73.14743 89.000
73.18733 112.000
73.22723 134.000
73.26712 103.000
73.30702 139.000
73.34692 91.000
73.38682 96.000
73.42672 87.000
73.46662 107.000
73.50652 114.000
73.54642 112.000
73.58632 116.000
73.62622 83.000
73.66611 104.000
73.70601 118.000
73.74591 111.000
73.78581 89.000
73.82571 123.000
73.86561 118.000
73.90551 91.000
73.94541 110.000
73.98531 113.000
74.02521 105.000
74.06510 114.000
74.10500 94.000
74.14490 95.000
74.18480 107.000
74.22470 96.000
74.26460 121.000
74.30450 124.000
74.34440 112.000
74.38430 108.000
74.42419 117.000
74.46409 105.000
74.50399 111.000
74.54389 113.000
74.58379 92.000
74.62369 109.000
74.66359 125.000
74.70349 103.000
74.74339 95.000
74.78329 127.000
74.82318 123.000
74.86308 117.000
74.90298 117.000
74.94288 100.000
74.98278 135.000
75.02268 105.000
75.06258 125.000
75.10248 104.000
75.14238 124.000
75.18228 113.000
75.22217 103.000
75.26207 79.000
75.30197 96.000
75.34187 105.000
75.38177 99.000
75.42167 138.000
75.46157 118.000
75.50147 110.000
75.54137 112.000
75.58126 95.000
75.62116 123.000
75.66106 105.000
75.70096 114.000
75.74086 124.000
75.78076 105.000
75.82066 106.000
75.86056 122.000
75.90046 119.000
75.94036 89.000
75.98025 83.000
76.02015 116.000
76.06005 114.000
76.09995 109.000
76.13985 102.000
76.17975 122.000
76.21965 102.000
76.25955 108.000
76.29945 93.000
76.33934 104.000
76.37924 115.000
76.41914 121.000
76.45904 114.000
76.49894 133.000
76.53884 120.000
76.57874 112.000
76.61864 137.000
76.65854 98.000
76.69844 110.000
76.73833 122.000
76.77823 108.000
76.81813 114.000
76.85803 112.000
76.89793 104.000
76.93783 112.000
76.97773 95.000
77.01763 110.000
77.05753 110.000
77.09743 116.000
77.13732 98.000
77.17722 98.000
77.21712 118.000
77.25702 111.000
77.29692 108.000
77.33682 113.000
77.37672 92.000
77.41662 97.000
77.45652 112.000
77.49641 109.000
77.53631 118.000
77.57621 115.000
77.61611 122.000
77.65601 126.000
77.69591 112.000
77.73581 107.000
77.77571 113.000
77.81561 110.000
77.85551 104.000
77.89540 116.000
77.93530 111.000
77.97520 90.000
78.01510 106.000
78.05500 104.000
78.09490 118.000
78.13480 116.000
78.17470 104.000
78.21460 107.000
78.25450 107.000
78.29439 115.000
78.33429 97.000
78.37419 112.000
78.41409 112.000
78.45399 123.000
78.49389 126.000
78.53379 111.000
78.57369 117.000
78.61359 108.000
78.65348 105.000
78.69338 122.000
78.73328 95.000
78.77318 119.000
78.81308 126.000
78.85298 91.000
78.89288 115.000
78.93278 139.000
78.97268 114.000
79.01258 96.000
79.05247 108.000
79.09237 140.000
79.13227 103.000
79.17217 113.000
79.21207 129.000
79.25197 92.000
79.29187 102.000
79.33177 104.000
79.37167 125.000
79.41157 105.000
79.45146 126.000
79.49136 102.000
79.53126 106.000
79.57116 104.000
79.61106 123.000
79.65096 117.000
79.69086 96.000
79.73076 95.000
79.77066 98.000
79.81055 124.000
79.85045 110.000
79.89035 122.000
79.93025 97.000
79.97015 119.000
80.01005 127.000
80.04995 128.000
80.08985 116.000
80.12975 111.000
80.16965 113.000
80.20954 114.000
80.24944 119.000
80.28934 109.000
